0.296695
0.296695
0.280209
0.252731
0.225254
0.225254
0.200524
0.195028
0.469804
0.195028
0.195028
0.208767
0.189533
0.192281
0.200524
0.189533
0.184037
0.175794
0.175794
0.192281
0.236245
0.236245
0.233497
0.233497
0.222506
0.206019
0.211515
0.203272
0.208767
0.222506
0.225254
0.258227
0.255479
0.197776
0.186785
0.197776
0.082371
0.892958
0.126335
0.164803
0.153812
0.162055
0.156560
0.151064
0.162055
0.145569
0.129082
0.129082
0.151064
0.195028
0.208767
0.206019
0.206019
0.203272
0.186785
0.189533
0.189533
0.184037
0.189533
0.203272
0.238992
0.238992
0.222506
0.178542
0.167551
0.120839
0.601696
0.131830
0.162055
0.148317
0.142821
0.156560
0.142821
0.151064
0.162055
0.142821
0.145569
0.192281
0.208767
0.203272
0.214263
0.189533
0.181290
0.181290
0.173046
0.181290
0.181290
0.189533
0.222506
0.228001
0.222506
0.164803
0.170299
0.115344
0.164803
0.412101
0.153812
0.151064
0.164803
0.156560
0.159308
0.170299
0.170299
0.162055
0.173046
0.192281
0.219758
0.217010
0.214263
0.206019
0.203272
0.192281
0.192281
0.186785
0.178542
0.189533
0.222506
0.241740
0.238992
0.192281
0.173046
0.167551
0.109848
0.763813
0.151064
0.153812
0.164803
0.142821
0.151064
0.159308
0.153812
0.156560
0.137326
0.129082
0.175794
0.206019
0.200524
0.214263
0.203272
0.192281
0.195028
0.189533
0.192281
0.197776
0.228001
0.247236
0.238992
0.219758
0.181290
0.189533
0.159308
0.288452
0.142821
0.167551
0.148317
0.162055
0.156560
0.142821
0.151064
0.156560
0.142821
0.140073
0.140073
0.195028
0.211515
0.228001
0.208767
0.208767
0.206019
0.192281
0.200524
0.206019
0.195028
0.208767
0.247236
0.247236
0.255479
0.195028
0.186785
0.189533
0.082371
0.881967
0.178542
0.170299
0.151064
0.162055
0.173046
0.162055
0.167551
0.175794
0.162055
0.170299
0.178542
0.214263
0.222506
0.219758
0.206019
0.230749
0.258227
0.244488
0.189533
0.173046
0.175794
0.140073
0.390119
0.112596
0.164803
0.156560
0.145569
0.167551
0.164803
0.159308
0.159308
0.162055
0.142821
0.164803
0.186785
0.200524
0.203272
0.203272
0.189533
0.186785
0.184037
0.181290
0.181290
0.173046
0.175794
0.170299
0.184037
0.173046
0.178542
0.189533
0.178542
0.208767
0.236245
0.200524
0.200524
0.178542
0.148317
0.109848
0.642912
0.101605
0.151064
0.140073
0.131830
0.140073
0.140073
0.134578
0.148317
0.151064
0.109848
0.109848
0.140073
0.184037
0.208767
0.206019
0.192281
0.200524
0.186785
0.184037
0.184037
0.186785
0.181290
0.203272
0.233497
0.222506
0.211515
0.178542
0.164803
0.159308
0.236245
0.263722
0.159308
0.151064
0.156560
0.159308
0.148317
0.156560
0.156560
0.148317
0.142821
0.148317
0.200524
0.214263
0.219758
0.211515
0.200524
0.197776
0.200524
0.181290
0.197776
0.197776
0.189533
0.238992
0.249983
0.255479
0.200524
0.186785
0.181290
0.101605
0.634669
0.164803
0.170299
0.162055
0.156560
0.175794
0.173046
0.162055
0.170299
0.164803
0.164803
0.203272
0.236245
0.219758
0.228001
0.217010
0.200524
0.208767
0.203272
0.200524
0.206019
0.230749
0.269218
0.260974
0.228001
0.203272
0.200524
0.142821
0.582462
0.148317
0.189533
0.175794
0.181290
0.192281
0.173046
0.186785
0.186785
0.167551
0.186785
0.206019
0.230749
0.238992
0.225254
0.217010
0.203272
0.200524
0.197776
0.208767
0.208767
0.230749
0.260974
0.241740
0.189533
0.192281
0.181290
0.090614
0.835255
0.170299
0.164803
0.170299
0.162055
0.159308
0.162055
0.167551
0.162055
0.140073
0.142821
0.173046
0.211515
0.219758
0.208767
0.211515
0.206019
0.197776
0.206019
0.211515
0.192281
0.206019
0.222506
0.247236
0.255479
0.260974
0.203272
0.208767
0.195028
0.129082
0.659399
0.145569
0.164803
0.173046
0.181290
0.173046
0.186785
0.178542
0.178542
0.175794
0.164803
0.195028
0.236245
0.247236
0.230749
0.230749
0.222506
0.217010
0.214263
0.200524
0.197776
0.214263
0.214263
0.230749
0.266470
0.266470
0.230749
0.197776
0.195028
0.170299
0.060388
0.848994
0.167551
0.175794
0.181290
0.167551
0.178542
0.181290
0.167551
0.178542
0.175794
0.162055
0.200524
0.230749
0.222506
0.230749
0.222506
0.206019
0.211515
0.197776
0.192281
0.195028
0.206019
0.233497
0.260974
0.247236
0.222506
0.192281
0.181290
0.164803
0.236245
0.274713
0.145569
0.159308
0.156560
0.151064
0.148317
0.151064
0.145569
0.156560
0.134578
0.131830
0.173046
0.203272
0.206019
0.206019
0.200524
0.181290
0.181290
0.181290
0.173046
0.189533
0.189533
0.200524
0.249983
0.222506
0.181290
0.175794
0.173046
0.131830
0.362642
0.162055
0.145569
0.153812
0.148317
0.142821
0.153812
0.142821
0.142821
0.145569
0.120839
0.126335
0.178542
0.200524
0.195028
0.200524
0.189533
0.175794
0.200524
0.181290
0.175794
0.192281
0.192281
0.217010
0.249983
0.249983
0.178542
0.181290
0.173046
0.090614
0.865481
0.167551
0.153812
0.164803
0.159308
0.159308
0.167551
0.162055
0.164803
0.164803
0.170299
0.206019
0.228001
0.219758
0.214263
0.219758
0.211515
0.192281
0.208767
0.206019
0.195028
0.228001
0.252731
0.252731
0.274713
0.197776
0.181290
0.189533
0.181290
0.337912
0.178542
0.173046
0.162055
0.181290
0.181290
0.170299
0.192281
0.175794
0.167551
0.181290
0.206019
0.217010
0.233497
0.211515
0.200524
0.211515
0.206019
0.186785
0.203272
0.200524
0.217010
0.247236
0.255479
0.206019
0.192281
0.184037
0.101605
0.634669
0.186785
0.156560
0.164803
0.162055
0.137326
0.162055
0.151064
0.151064
0.148317
0.126335
0.151064
0.200524
0.208767
0.206019
0.200524
0.192281
0.186785
0.186785
0.189533
0.181290
0.189533
0.228001
0.233497
0.249983
0.181290
0.173046
0.181290
0.068632
0.766561
0.153812
0.156560
0.162055
0.156560
0.156560
0.148317
0.164803
0.156560
0.134578
0.153812
0.203272
0.211515
0.230749
0.217010
0.203272
0.214263
0.197776
0.197776
0.206019
0.203272
0.200524
0.252731
0.263722
0.249983
0.211515
0.192281
0.178542
0.142821
0.428588
0.126335
0.186785
0.167551
0.159308
0.175794
0.173046
0.164803
0.175794
0.170299
0.156560
0.164803
0.192281
0.217010
0.233497
0.225254
0.225254
0.211515
0.200524
0.200524
0.195028
0.197776
0.189533
0.208767
0.238992
0.249983
0.244488
0.211515
0.184037
0.189533
0.173046
0.197776
0.497281
0.170299
0.167551
0.170299
0.170299
0.162055
0.164803
0.173046
0.159308
0.167551
0.167551
0.186785
0.225254
0.211515
0.206019
0.214263
0.206019
0.197776
0.200524
0.197776
0.197776
0.208767
0.236245
0.247236
0.252731
0.184037
0.170299
0.186785
0.123587
0.480795
0.096109
0.159308
0.159308
0.151064
0.153812
0.153812
0.156560
0.148317
0.134578
0.129082
0.164803
0.192281
0.211515
0.195028
0.195028
0.200524
0.186785
0.173046
0.189533
0.186785
0.208767
0.247236
0.230749
0.189533
0.175794
0.178542
0.156560
0.244488
0.266470
0.159308
0.164803
0.162055
0.162055
0.164803
0.167551
0.164803
0.162055
0.153812
0.175794
0.219758
0.236245
0.225254
0.222506
0.222506
0.206019
0.208767
0.214263
0.197776
0.211515
0.241740
0.258227
0.258227
0.200524
0.186785
0.197776
0.068632
0.824264
0.162055
0.170299
0.156560
0.178542
0.175794
0.164803
0.175794
0.173046
0.162055
0.173046
0.214263
0.222506
0.230749
0.219758
0.211515
0.200524
0.203272
0.189533
0.203272
0.219758
0.241740
0.260974
0.247236
0.211515
0.197776
0.186785
0.063136
0.859985
0.159308
0.153812
0.164803
0.156560
0.164803
0.167551
0.159308
0.164803
0.151064
0.145569
0.181290
0.206019
0.214263
0.208767
0.208767
0.203272
0.184037
0.195028
0.189533
0.184037
0.230749
0.238992
0.225254
0.200524
0.181290
0.173046
0.129082
0.574219
0.093362
0.159308
0.148317
0.142821
0.151064
0.142821
0.140073
0.153812
0.131830
0.107100
0.140073
0.186785
0.192281
0.200524
0.195028
0.173046
0.178542
0.170299
0.167551
0.175794
0.178542
0.195028
0.236245
0.219758
0.189533
0.164803
0.159308
0.087866
0.293947
0.269218
0.129082
0.129082
0.126335
0.129082
0.131830
0.126335
0.126335
0.129082
0.120839
0.126335
0.173046
0.189533
0.189533
0.181290
0.173046
0.162055
0.159308
0.145569
0.151064
0.159308
0.173046
0.186785
0.208767
0.222506
0.134578
0.145569
0.126335
0.010929
0.813273
0.115344
0.107100
0.107100
0.112596
0.104353
0.109848
0.107100
0.112596
0.112596
0.107100
0.129082
0.170299
0.164803
0.162055
0.162055
0.148317
0.142821
0.140073
0.137326
0.140073
0.145569
0.167551
0.195028
0.192281
0.173046
0.123587
0.115344
0.107100
0.060388
0.478047
0.087866
0.090614
0.093362
0.090614
0.085118
0.101605
0.087866
0.096109
0.096109
0.079623
0.098857
0.142821
0.156560
0.148317
0.156560
0.151064
0.131830
0.140073
0.129082
0.123587
0.145569
0.151064
0.167551
0.200524
0.189533
0.123587
0.126335
0.118091
0.049397
0.747327
0.052145
0.098857
0.101605
0.098857
0.101605
0.107100
0.104353
0.096109
0.082371
0.085118
0.120839
0.167551
0.173046
0.151064
0.156560
0.162055
0.137326
0.145569
0.156560
0.145569
0.162055
0.200524
0.214263
0.203272
0.184037
0.142821
0.156560
0.063136
0.862733
0.082371
0.120839
0.115344
0.129082
0.131830
0.123587
0.129082
0.137326
0.118091
0.129082
0.164803
0.189533
0.192281
0.186785
0.173046
0.175794
0.173046
0.156560
0.170299
0.178542
0.203272
0.238992
0.236245
0.173046
0.178542
0.162055
0.063136
0.846246
0.148317
0.140073
0.151064
0.145569
0.151064
0.151064
0.153812
0.140073
0.142821
0.159308
0.175794
0.208767
0.208767
0.192281
0.192281
0.178542
0.164803
0.181290
0.170299
0.159308
0.181290
0.219758
0.217010
0.206019
0.159308
0.140073
0.142821
0.063136
0.615435
0.131830
0.131830
0.123587
0.129082
0.134578
0.115344
0.129082
0.131830
0.104353
0.115344
0.173046
0.173046
0.181290
0.178542
0.167551
0.167551
0.162055
0.156560
0.167551
0.159308
0.186785
0.219758
0.206019
0.145569
0.151064
0.142821
0.071380
0.673138
0.085118
0.120839
0.123587
0.120839
0.118091
0.123587
0.126335
0.129082
0.123587
0.109848
0.109848
0.170299
0.200524
0.184037
0.186785
0.186785
0.164803
0.175794
0.181290
0.162055
0.170299
0.173046
0.186785
0.230749
0.217010
0.214263
0.173046
0.162055
0.145569
0.032911
0.851742
0.120839
0.131830
0.134578
0.123587
0.137326
0.137326
0.126335
0.145569
0.140073
0.126335
0.148317
0.184037
0.181290
0.197776
0.197776
0.178542
0.181290
0.164803
0.156560
0.167551
0.164803
0.162055
0.211515
0.225254
0.203272
0.208767
0.164803
0.142821
0.104353
0.376380
0.142821
0.134578
0.120839
0.118091
0.137326
0.142821
0.129082
0.140073
0.140073
0.134578
0.140073
0.164803
0.186785
0.192281
0.189533
0.164803
0.170299
0.162055
0.145569
0.148317
0.153812
0.140073
0.192281
0.214263
0.181290
0.153812
0.129082
0.123587
0.074127
0.736336
0.098857
0.118091
0.115344
0.123587
0.123587
0.137326
0.120839
0.137326
0.120839
0.101605
0.151064
0.186785
0.178542
0.192281
0.184037
0.170299
0.173046
0.159308
0.156560
0.164803
0.170299
0.203272
0.225254
0.214263
0.162055
0.156560
0.145569
0.049397
0.862733
0.126335
0.129082
0.134578
0.129082
0.131830
0.134578
0.142821
0.131830
0.120839
0.115344
0.137326
0.186785
0.200524
0.192281
0.192281
0.197776
0.181290
0.186785
0.181290
0.178542
0.184037
0.186785
0.214263
0.244488
0.244488
0.178542
0.181290
0.170299
0.057641
0.917688
0.162055
0.137326
0.148317
0.140073
0.137326
0.137326
0.131830
0.140073
0.134578
0.151064
0.186785
0.208767
0.200524
0.184037
0.186785
0.181290
0.167551
0.181290
0.181290
0.175794
0.214263
0.244488
0.225254
0.211515
0.178542
0.159308
0.167551
0.162055
0.184037
0.164803
0.145569
0.151064
0.162055
0.156560
0.148317
0.159308
0.145569
0.142821
0.164803
0.195028
0.186785
0.175794
0.170299
0.173046
0.167551
0.156560
0.148317
0.164803
0.167551
0.186785
0.208767
0.219758
0.131830
0.142821
0.131830
0.063136
0.827012
0.107100
0.101605
0.109848
0.112596
0.101605
0.109848
0.104353
0.098857
0.082371
0.085118
0.129082
0.167551
0.167551
0.159308
0.153812
0.142821
0.140073
0.140073
0.140073
0.140073
0.148317
0.167551
0.197776
0.192281
0.148317
0.129082
0.131830
0.107100
0.288452
0.109848
0.109848
0.104353
0.112596
0.112596
0.104353
0.112596
0.109848
0.098857
0.093362
0.093362
0.140073
0.170299
0.173046
0.162055
0.162055
0.162055
0.153812
0.153812
0.156560
0.151064
0.159308
0.186785
0.203272
0.206019
0.228001
0.137326
0.151064
0.137326
0.019172
0.887463
0.109848
0.109848
0.118091
0.123587
0.115344
0.131830
0.120839
0.118091
0.129082
0.115344
0.118091
0.170299
0.184037
0.170299
0.186785
0.175794
0.173046
0.167551
0.159308
0.159308
0.167551
0.162055
0.170299
0.208767
0.222506
0.219758
0.173046
0.153812
0.145569
0.057641
0.195028
0.357146
0.140073
0.134578
0.129082
0.140073
0.148317
0.134578
0.145569
0.131830
0.131830
0.137326
0.148317
0.162055
0.189533
0.170299
0.170299
0.173046
0.162055
0.151064
0.167551
0.159308
0.151064
0.195028
0.230749
0.197776
0.167551
0.145569
0.142821
0.090614
0.651156
0.098857
0.134578
0.123587
0.126335
0.126335
0.134578
0.129082
0.126335
0.107100
0.098857
0.148317
0.181290
0.186785
0.195028
0.189533
0.178542
0.178542
0.184037
0.170299
0.181290
0.197776
0.233497
0.241740
0.228001
0.175794
0.181290
0.098857
0.725345
0.082371
0.142821
0.151064
0.151064
0.142821
0.153812
0.156560
0.156560
0.140073
0.140073
0.178542
0.206019
0.211515
0.211515
0.200524
0.200524
0.186785
0.189533
0.189533
0.195028
0.186785
0.233497
0.249983
0.228001
0.208767
0.181290
0.167551
0.090614
0.838003
0.148317
0.153812
0.153812
0.145569
0.162055
0.159308
0.153812
0.162055
0.151064
0.159308
0.170299
0.200524
0.208767
0.208767
0.200524
0.200524
0.195028
0.184037
0.181290
0.192281
0.186785
0.236245
0.252731
0.238992
0.225254
0.184037
0.178542
0.107100
0.549489
0.115344
0.137326
0.142821
0.137326
0.134578
0.140073
0.145569
0.134578
0.134578
0.120839
0.137326
0.170299
0.184037
0.173046
0.175794
0.162055
0.151064
0.156560
0.153812
0.145569
0.164803
0.186785
0.206019
0.197776
0.151064
0.140073
0.148317
0.043902
0.780300
0.104353
0.109848
0.115344
0.118091
0.115344
0.107100
0.118091
0.112596
0.087866
0.085118
0.129082
0.162055
0.184037
0.170299
0.164803
0.173046
0.162055
0.148317
0.159308
0.162055
0.153812
0.189533
0.225254
0.200524
0.222506
0.148317
0.153812
0.156560
0.074127
0.774804
0.140073
0.134578
0.134578
0.145569
0.140073
0.140073
0.151064
0.137326
0.134578
0.140073
0.164803
0.189533
0.206019
0.206019
0.200524
0.197776
0.192281
0.184037
0.186785
0.186785
0.192281
0.219758
0.228001
0.241740
0.252731
0.186785
0.173046
0.181290
0.049397
0.843498
0.162055
0.156560
0.142821
0.162055
0.164803
0.156560
0.173046
0.159308
0.148317
0.162055
0.175794
0.197776
0.219758
0.214263
0.197776
0.200524
0.186785
0.181290
0.192281
0.181290
0.192281
0.230749
0.249983
0.228001
0.249983
0.181290
0.164803
0.164803
0.131830
0.511020
0.142821
0.151064
0.148317
0.151064
0.145569
0.142821
0.156560
0.159308
0.137326
0.137326
0.153812
0.192281
0.211515
0.189533
0.192281
0.189533
0.173046
0.175794
0.195028
0.175794
0.178542
0.219758
0.238992
0.222506
0.181290
0.162055
0.162055
0.057641
0.827012
0.151064
0.151064
0.140073
0.134578
0.140073
0.140073
0.142821
0.140073
0.118091
0.120839
0.164803
0.200524
0.203272
0.203272
0.186785
0.184037
0.186785
0.175794
0.175794
0.192281
0.186785
0.241740
0.236245
0.217010
0.164803
0.175794
0.096109
0.722597
0.189533
0.148317
0.137326
0.153812
0.148317
0.145569
0.162055
0.148317
0.140073
0.142821
0.159308
0.195028
0.206019
0.206019
0.189533
0.195028
0.184037
0.173046
0.184037
0.175794
0.192281
0.233497
0.233497
0.249983
0.178542
0.173046
0.118091
0.467056
0.208767
0.142821
0.156560
0.142821
0.151064
0.159308
0.156560
0.148317
0.159308
0.148317
0.159308
0.200524
0.203272
0.197776
0.195028
0.173046
0.170299
0.162055
0.164803
0.159308
0.181290
0.200524
0.217010
0.217010
0.159308
0.142821
0.162055
0.126335
0.238992
0.164803
0.123587
0.126335
0.129082
0.126335
0.123587
0.131830
0.129082
0.115344
0.109848
0.098857
0.148317
0.181290
0.189533
0.192281
0.184037
0.173046
0.178542
0.170299
0.173046
0.167551
0.175794
0.200524
0.228001
0.225254
0.192281
0.162055
0.159308
0.164803
0.065884
0.692372
0.140073
0.145569
0.151064
0.148317
0.148317
0.148317
0.148317
0.145569
0.129082
0.131830
0.167551
0.211515
0.219758
0.211515
0.214263
0.211515
0.206019
0.206019
0.203272
0.192281
0.197776
0.217010
0.241740
0.247236
0.274713
0.192281
0.192281
0.181290
0.076875
0.783048
0.170299
0.162055
0.173046
0.164803
0.167551
0.170299
0.175794
0.175794
0.175794
0.170299
0.197776
0.228001
0.222506
0.228001
0.219758
0.208767
0.208767
0.206019
0.208767
0.208767
0.214263
0.222506
0.263722
0.266470
0.238992
0.200524
0.197776
0.175794
0.293947
0.741831
0.173046
0.175794
0.178542
0.175794
0.175794
0.181290
0.189533
0.173046
0.175794
0.167551
0.200524
0.219758
0.211515
0.203272
0.206019
0.195028
0.184037
0.189533
0.186785
0.170299
0.214263
0.244488
0.228001
0.214263
0.164803
0.156560
0.164803
0.129082
0.395615
0.134578
0.137326
0.131830
0.148317
0.129082
0.142821
0.137326
0.118091
0.098857
0.137326
0.181290
0.181290
0.192281
0.173046
0.162055
0.178542
0.164803
0.170299
0.170299
0.175794
0.217010
0.219758
0.192281
0.162055
0.156560
0.112596
0.206019
0.524759
0.145569
0.134578
0.142821
0.137326
0.134578
0.142821
0.145569
0.123587
0.129082
0.153812
0.195028
0.206019
0.195028
0.192281
0.186785
0.175794
0.175794
0.175794
0.173046
0.173046
0.219758
0.230749
0.219758
0.175794
0.153812
0.153812
0.098857
0.420344
0.109848
0.142821
0.137326
0.140073
0.137326
0.134578
0.134578
0.134578
0.129082
0.126335
0.170299
0.195028
0.186785
0.184037
0.175794
0.164803
0.162055
0.153812
0.167551
0.167551
0.192281
0.217010
0.219758
0.184037
0.148317
0.156560
0.082371
0.280209
0.249983
0.131830
0.126335
0.126335
0.129082
0.118091
0.129082
0.134578
0.109848
0.120839
0.131830
0.162055
0.186785
0.181290
0.159308
0.173046
0.151064
0.153812
0.153812
0.148317
0.159308
0.189533
0.214263
0.214263
0.148317
0.140073
0.140073
0.063136
0.802282
0.115344
0.126335
0.131830
0.120839
0.126335
0.134578
0.126335
0.131830
0.120839
0.098857
0.129082
0.173046
0.195028
0.203272
0.197776
0.195028
0.195028
0.184037
0.175794
0.192281
0.186785
0.186785
0.241740
0.252731
0.236245
0.211515
0.189533
0.189533
0.192281
0.109848
0.810525
0.173046
0.167551
0.164803
0.175794
0.170299
0.170299
0.175794
0.175794
0.170299
0.170299
0.192281
0.219758
0.244488
0.241740
0.233497
0.228001
0.225254
0.211515
0.217010
0.214263
0.211515
0.228001
0.269218
0.277461
0.260974
0.233497
0.214263
0.217010
0.126335
0.642912
0.142821
0.184037
0.184037
0.197776
0.192281
0.184037
0.189533
0.186785
0.186785
0.189533
0.208767
0.233497
0.249983
0.238992
0.230749
0.236245
0.230749
0.219758
0.222506
0.222506
0.219758
0.230749
0.269218
0.274713
0.302191
0.214263
0.208767
0.211515
0.082371
0.824264
0.186785
0.178542
0.178542
0.184037
0.178542
0.178542
0.189533
0.175794
0.162055
0.164803
0.211515
0.225254
0.225254
0.219758
0.208767
0.219758
0.214263
0.208767
0.217010
0.211515
0.238992
0.274713
0.260974
0.211515
0.222506
0.203272
0.140073
0.769309
0.164803
0.173046
0.189533
0.181290
0.181290
0.184037
0.189533
0.167551
0.159308
0.181290
0.228001
0.247236
0.244488
0.238992
0.247236
0.233497
0.233497
0.238992
0.233497
0.233497
0.277461
0.304939
0.280209
0.247236
0.236245
0.225254
0.211515
0.442326
0.151064
0.211515
0.203272
0.208767
0.214263
0.208767
0.208767
0.211515
0.203272
0.200524
0.252731
0.266470
0.266470
0.263722
0.258227
0.249983
0.252731
0.252731
0.247236
0.263722
0.269218
0.310434
0.313182
0.280209
0.241740
0.238992
0.238992
0.151064
0.684129
0.225254
0.214263
0.228001
0.225254
0.228001
0.225254
0.225254
0.219758
0.214263
0.217010
0.255479
0.277461
0.271965
0.266470
0.271965
0.263722
0.249983
0.249983
0.244488
0.241740
0.269218
0.302191
0.291200
0.318677
0.236245
0.225254
0.230749
0.153812
0.794039
0.178542
0.211515
0.203272
0.200524
0.208767
0.203272
0.211515
0.203272
0.192281
0.184037
0.192281
0.236245
0.263722
0.255479
0.258227
0.241740
0.241740
0.238992
0.238992
0.236245
0.230749
0.266470
0.288452
0.277461
0.255479
0.225254
0.225254
0.173046
0.568723
0.164803
0.200524
0.203272
0.206019
0.211515
0.211515
0.203272
0.208767
0.197776
0.186785
0.189533
0.222506
0.263722
0.274713
0.266470
0.255479
0.252731
0.247236
0.247236
0.247236
0.238992
0.247236
0.271965
0.302191
0.299443
0.296695
0.247236
0.238992
0.244488
0.115344
0.901201
0.225254
0.214263
0.217010
0.225254
0.219758
0.225254
0.228001
0.225254
0.222506
0.217010
0.236245
0.280209
0.282956
0.271965
0.271965
0.266470
0.258227
0.255479
0.252731
0.252731
0.255479
0.282956
0.310434
0.296695
0.280209
0.238992
0.230749
0.233497
0.104353
0.884715
0.214263
0.211515
0.214263
0.214263
0.211515
0.206019
0.219758
0.214263
0.217010
0.214263
0.214263
0.247236
0.252731
0.249983
0.238992
0.236245
0.219758
0.225254
0.225254
0.214263
0.219758
0.252731
0.269218
0.260974
0.217010
0.206019
0.189533
0.123587
0.796786
0.156560
0.186785
0.175794
0.170299
0.181290
0.175794
0.170299
0.173046
0.142821
0.145569
0.206019
0.217010
0.222506
0.217010
0.206019
0.197776
0.203272
0.197776
0.200524
0.214263
0.225254
0.252731
0.252731
0.208767
0.195028
0.195028
0.129082
0.579714
0.137326
0.162055
0.164803
0.178542
0.170299
0.173046
0.178542
0.162055
0.148317
0.164803
0.208767
0.230749
0.233497
0.230749
0.222506
0.222506
0.211515
0.211515
0.219758
0.217010
0.252731
0.271965
0.260974
0.233497
0.206019
0.197776
0.120839
0.870976
0.189533
0.175794
0.181290
0.175794
0.184037
0.186785
0.178542
0.178542
0.181290
0.189533
0.230749
0.244488
0.230749
0.225254
0.228001
0.211515
0.208767
0.225254
0.219758
0.214263
0.263722
0.271965
0.260974
0.233497
0.200524
0.206019
0.175794
0.428588
0.134578
0.189533
0.181290
0.181290
0.192281
0.181290
0.197776
0.197776
0.181290
0.184037
0.206019
0.228001
0.236245
0.236245
0.219758
0.217010
0.214263
0.206019
0.214263
0.222506
0.217010
0.252731
0.263722
0.255479
0.206019
0.203272
0.189533
0.142821
0.491786
0.137326
0.173046
0.178542
0.173046
0.170299
0.173046
0.175794
0.184037
0.181290
0.153812
0.140073
0.192281
0.219758
0.236245
0.233497
0.217010
0.219758
0.208767
0.206019
0.208767
0.214263
0.214263
0.247236
0.274713
0.252731
0.214263
0.203272
0.192281
0.192281
0.247236
0.401110
0.178542
0.178542
0.173046
0.173046
0.178542
0.170299
0.186785
0.186785
0.153812
0.164803
0.206019
0.233497
0.249983
0.252731
0.244488
0.238992
0.236245
0.228001
0.225254
0.228001
0.219758
0.266470
0.293947
0.271965
0.241740
0.217010
0.208767
0.134578
0.645660
0.126335
0.186785
0.192281
0.192281
0.195028
0.197776
0.195028
0.197776
0.195028
0.186785
0.192281
0.230749
0.247236
0.249983
0.247236
0.230749
0.228001
0.228001
0.222506
0.222506
0.233497
0.247236
0.282956
0.280209
0.255479
0.225254
0.219758
0.192281
0.258227
0.211515
0.192281
0.186785
0.195028
0.181290
0.186785
0.197776
0.184037
0.175794
0.175794
0.178542
0.225254
0.225254
0.222506
0.219758
0.217010
0.200524
0.195028
0.203272
0.186785
0.189533
0.247236
0.238992
0.211515
0.186785
0.173046
0.167551
0.247236
0.192281
0.153812
0.151064
0.145569
0.140073
0.151064
0.148317
0.151064
0.137326
0.115344
0.134578
0.181290
0.200524
0.214263
0.208767
0.192281
0.195028
0.189533
0.181290
0.186785
0.189533
0.214263
0.249983
0.236245
0.208767
0.178542
0.184037
0.104353
0.739084
0.107100
0.156560
0.151064
0.167551
0.148317
0.153812
0.162055
0.151064
0.148317
0.151064
0.184037
0.211515
0.217010
0.203272
0.200524
0.189533
0.181290
0.189533
0.192281
0.186785
0.197776
0.244488
0.233497
0.238992
0.192281
0.167551
0.167551
0.101605
0.598948
0.159308
0.159308
0.145569
0.156560
0.162055
0.153812
0.159308
0.164803
0.156560
0.173046
0.219758
0.217010
0.211515
0.206019
0.195028
0.186785
0.195028
0.181290
0.189533
0.189533
0.217010
0.249983
0.236245
0.225254
0.178542
0.184037
0.142821
0.293947
0.186785
0.162055
0.145569
0.164803
0.148317
0.153812
0.156560
0.156560
0.151064
0.140073
0.134578
0.195028
0.203272
0.208767
0.200524
0.192281
0.189533
0.173046
0.195028
0.178542
0.189533
0.206019
0.238992
0.241740
0.244488
0.175794
0.175794
0.184037
0.071380
0.903949
0.104353
0.162055
0.162055
0.164803
0.167551
0.167551
0.173046
0.170299
0.159308
0.142821
0.159308
0.208767
0.228001
0.222506
0.222506
0.225254
0.195028
0.211515
0.208767
0.197776
0.208767
0.217010
0.238992
0.269218
0.260974
0.219758
0.195028
0.195028
0.126335
0.126335
0.840751
0.170299
0.170299
0.178542
0.170299
0.181290
0.167551
0.173046
0.173046
0.175794
0.164803
0.195028
0.230749
0.228001
0.228001
0.228001
0.208767
0.203272
0.206019
0.195028
0.203272
0.200524
0.222506
0.266470
0.249983
0.255479
0.189533
0.195028
0.175794
0.184037
0.442326
0.153812
0.162055
0.164803
0.156560
0.159308
0.164803
0.164803
0.164803
0.153812
0.142821
0.170299
0.206019
0.195028
0.192281
0.181290
0.170299
0.173046
0.178542
0.156560
0.175794
0.214263
0.225254
0.211515
0.192281
0.148317
0.148317
0.085118
0.799534
0.126335
0.137326
0.118091
0.134578
0.134578
0.129082
0.134578
0.137326
0.112596
0.107100
0.148317
0.192281
0.197776
0.197776
0.175794
0.181290
0.181290
0.170299
0.175794
0.181290
0.203272
0.238992
0.241740
0.208767
0.173046
0.164803
0.093362
0.747327
0.101605
0.142821
0.148317
0.153812
0.145569
0.151064
0.156560
0.145569
0.142821
0.142821
0.178542
0.208767
0.214263
0.200524
0.206019
0.206019
0.189533
0.192281
0.195028
0.192281
0.206019
0.260974
0.260974
0.260974
0.200524
0.184037
0.184037
0.164803
0.620930
0.167551
0.178542
0.173046
0.181290
0.184037
0.175794
0.181290
0.184037
0.173046
0.175794
0.217010
0.233497
0.233497
0.236245
0.217010
0.214263
0.219758
0.206019
0.211515
0.214263
0.206019
0.238992
0.299443
0.274713
0.258227
0.230749
0.203272
0.214263
0.211515
0.293947
0.200524
0.200524
0.186785
0.200524
0.203272
0.186785
0.197776
0.192281
0.167551
0.192281
0.228001
0.233497
0.233497
0.230749
0.214263
0.211515
0.217010
0.197776
0.203272
0.203272
0.197776
0.233497
0.271965
0.230749
0.206019
0.186785
0.167551
0.118091
0.684129
0.189533
0.142821
0.148317
0.140073
0.148317
0.145569
0.137326
0.145569
0.134578
0.109848
0.126335
0.184037
0.195028
0.200524
0.192281
0.184037
0.181290
0.181290
0.175794
0.181290
0.186785
0.184037
0.219758
0.244488
0.225254
0.173046
0.164803
0.151064
0.021920
0.714354
0.098857
0.140073
0.137326
0.134578
0.142821
0.142821
0.137326
0.140073
0.131830
0.118091
0.151064
0.186785
0.189533
0.195028
0.189533
0.175794
0.173046
0.170299
0.156560
0.170299
0.167551
0.181290
0.225254
0.222506
0.217010
0.173046
0.162055
0.151064
0.046650
0.818769
0.109848
0.129082
0.142821
0.131830
0.137326
0.134578
0.134578
0.137326
0.134578
0.123587
0.159308
0.192281
0.189533
0.195028
0.192281
0.173046
0.173046
0.173046
0.164803
0.173046
0.184037
0.206019
0.241740
0.228001
0.197776
0.167551
0.167551
0.142821
0.140073
0.392867
0.131830
0.145569
0.148317
0.134578
0.145569
0.151064
0.148317
0.151064
0.140073
0.129082
0.175794
0.189533
0.175794
0.184037
0.178542
0.167551
0.162055
0.167551
0.164803
0.167551
0.195028
0.219758
0.208767
0.162055
0.151064
0.148317
0.038406
0.282956
0.109848
0.140073
0.120839
0.134578
0.129082
0.123587
0.131830
0.129082
0.104353
0.104353
0.151064
0.173046
0.186785
0.186785
0.167551
0.175794
0.170299
0.156560
0.170299
0.170299
0.186785
0.233497
0.217010
0.195028
0.164803
0.153812
0.109848
0.409353
0.074127
0.137326
0.140073
0.140073
0.131830
0.148317
0.148317
0.134578
0.134578
0.142821
0.153812
0.203272
0.214263
0.208767
0.208767
0.203272
0.192281
0.195028
0.197776
0.184037
0.195028
0.241740
0.252731
0.247236
0.214263
0.189533
0.192281
0.068632
0.923183
0.173046
0.181290
0.164803
0.175794
0.192281
0.181290
0.184037
0.192281
0.175794
0.186785
0.228001
0.233497
0.241740
0.238992
0.222506
0.225254
0.225254
0.214263
0.219758
0.219758
0.214263
0.269218
0.277461
0.260974
0.228001
0.208767
0.197776
0.137326
0.667642
0.134578
0.175794
0.186785
0.170299
0.181290
0.184037
0.181290
0.181290
0.184037
0.167551
0.162055
0.197776
0.214263
0.230749
0.236245
0.208767
0.214263
0.208767
0.206019
0.195028
0.208767
0.200524
0.214263
0.258227
0.258227
0.255479
0.195028
0.181290
0.195028
0.126335
0.719849
0.134578
0.164803
0.159308
0.159308
0.170299
0.164803
0.170299
0.178542
0.151064
0.148317
0.173046
0.214263
0.233497
0.233497
0.219758
0.219758
0.214263
0.211515
0.206019
0.211515
0.203272
0.214263
0.236245
0.263722
0.269218
0.244488
0.197776
0.197776
0.189533
0.162055
0.538498
0.178542
0.162055
0.170299
0.175794
0.173046
0.181290
0.189533
0.173046
0.184037
0.192281
0.217010
0.230749
0.236245
0.222506
0.225254
0.219758
0.197776
0.208767
0.211515
0.208767
0.222506
0.255479
0.255479
0.282956
0.217010
0.200524
0.197776
0.079623
0.857237
0.175794
0.175794
0.167551
0.175794
0.178542
0.173046
0.186785
0.181290
0.167551
0.175794
0.214263
0.219758
0.228001
0.222506
0.206019
0.211515
0.206019
0.200524
0.195028
0.208767
0.219758
0.274713
0.258227
0.211515
0.195028
0.195028
0.167551
0.313182
0.151064
0.170299
0.178542
0.175794
0.167551
0.167551
0.164803
0.170299
0.153812
0.134578
0.181290
0.228001
0.236245
0.222506
0.222506
0.219758
0.208767
0.206019
0.217010
0.219758
0.233497
0.269218
0.260974
0.280209
0.208767
0.200524
0.211515
0.085118
0.816021
0.189533
0.181290
0.175794
0.189533
0.192281
0.173046
0.189533
0.181290
0.164803
0.200524
0.236245
0.236245
0.247236
0.241740
0.230749
0.222506
0.219758
0.208767
0.219758
0.222506
0.244488
0.288452
0.263722
0.233497
0.208767
0.200524
0.137326
0.310434
0.340659
0.173046
0.173046
0.175794
0.173046
0.181290
0.175794
0.173046
0.184037
0.170299
0.178542
0.219758
0.228001
0.225254
0.217010
0.214263
0.197776
0.203272
0.203272
0.192281
0.192281
0.225254
0.252731
0.247236
0.238992
0.186785
0.178542
0.156560
0.178542
0.708858
0.148317
0.134578
0.142821
0.148317
0.140073
0.145569
0.151064
0.137326
0.137326
0.123587
0.162055
0.195028
0.197776
0.181290
0.197776
0.181290
0.167551
0.181290
0.175794
0.164803
0.181290
0.217010
0.230749
0.219758
0.189533
0.153812
0.156560
0.093362
0.453317
0.118091
0.137326
0.129082
0.137326
0.137326
0.131830
0.142821
0.134578
0.118091
0.115344
0.129082
0.178542
0.208767
0.203272
0.192281
0.197776
0.189533
0.175794
0.184037
0.178542
0.175794
0.189533
0.217010
0.238992
0.236245
0.241740
0.173046
0.167551
0.170299
0.098857
0.967147
0.159308
0.145569
0.148317
0.145569
0.140073
0.159308
0.156560
0.145569
0.153812
0.151064
0.148317
0.203272
0.208767
0.208767
0.211515
0.200524
0.189533
0.189533
0.186785
0.173046
0.189533
0.192281
0.208767
0.252731
0.230749
0.230749
0.175794
0.170299
0.131830
0.230749
0.406606
0.140073
0.148317
0.148317
0.148317
0.162055
0.153812
0.151064
0.159308
0.142821
0.153812
0.192281
0.206019
0.197776
0.192281
0.192281
0.175794
0.175794
0.170299
0.159308
0.178542
0.178542
0.214263
0.230749
0.230749
0.148317
0.153812
0.134578
0.195028
0.554984
0.123587
0.129082
0.126335
0.123587
0.109848
0.129082
0.118091
0.101605
0.093362
0.153812
0.181290
0.192281
0.189533
0.167551
0.170299
0.162055
0.153812
0.167551
0.164803
0.195028
0.236245
0.228001
0.192281
0.175794
0.170299
0.126335
0.450570
0.098857
0.142821
0.153812
0.153812
0.148317
0.153812
0.148317
0.151064
0.142821
0.137326
0.175794
0.222506
0.217010
0.214263
0.214263
0.206019
0.197776
0.200524
0.197776
0.200524
0.214263
0.247236
0.269218
0.258227
0.222506
0.200524
0.192281
0.082371
0.912192
0.178542
0.173046
0.170299
0.181290
0.178542
0.170299
0.181290
0.173046
0.164803
0.186785
0.219758
0.228001
0.236245
0.219758
0.211515
0.214263
0.203272
0.197776
0.203272
0.208767
0.222506
0.260974
0.263722
0.260974
0.206019
0.197776
0.178542
0.123587
0.854490
0.173046
0.175794
0.175794
0.173046
0.186785
0.175794
0.175794
0.175794
0.162055
0.156560
0.192281
0.211515
0.206019
0.206019
0.203272
0.189533
0.186785
0.178542
0.186785
0.181290
0.181290
0.211515
0.252731
0.241740
0.181290
0.186785
0.170299
0.120839
0.453317
0.120839
0.153812
0.142821
0.148317
0.148317
0.156560
0.145569
0.148317
0.151064
0.120839
0.120839
0.175794
0.200524
0.203272
0.206019
0.200524
0.197776
0.203272
0.195028
0.192281
0.203272
0.206019
0.241740
0.277461
0.249983
0.203272
0.206019
0.197776
0.145569
0.368137
0.203272
0.173046
0.173046
0.178542
0.181290
0.189533
0.189533
0.184037
0.186785
0.164803
0.167551
0.203272
0.238992
0.236245
0.244488
0.230749
0.217010
0.225254
0.217010
0.211515
0.228001
0.222506
0.263722
0.291200
0.274713
0.219758
0.208767
0.206019
0.098857
0.925931
0.195028
0.175794
0.184037
0.189533
0.184037
0.195028
0.189533
0.186785
0.186785
0.178542
0.192281
0.233497
0.233497
0.236245
0.230749
0.228001
0.214263
0.217010
0.206019
0.208767
0.225254
0.252731
0.249983
0.266470
0.274713
0.192281
0.195028
0.195028
0.085118
0.728093
0.167551
0.159308
0.175794
0.170299
0.164803
0.162055
0.164803
0.164803
0.164803
0.140073
0.175794
0.208767
0.217010
0.208767
0.214263
0.197776
0.192281
0.200524
0.189533
0.186785
0.206019
0.252731
0.228001
0.228001
0.189533
0.170299
0.175794
0.280209
0.145569
0.167551
0.162055
0.151064
0.162055
0.162055
0.156560
0.173046
0.137326
0.129082
0.184037
0.211515
0.228001
0.236245
0.225254
0.222506
0.217010
0.214263
0.208767
0.219758
0.222506
0.260974
0.274713
0.291200
0.206019
0.214263
0.203272
0.206019
0.346155
0.186785
0.170299
0.175794
0.175794
0.186785
0.186785
0.186785
0.181290
0.186785
0.217010
0.241740
0.241740
0.238992
0.219758
0.225254
0.214263
0.208767
0.214263
0.211515
0.230749
0.274713
0.266470
0.263722
0.208767
0.192281
0.189533
0.219758
0.285704
0.175794
0.175794
0.181290
0.178542
0.189533
0.184037
0.184037
0.192281
0.175794
0.195028
0.236245
0.244488
0.230749
0.233497
0.225254
0.214263
0.222506
0.206019
0.208767
0.214263
0.219758
0.249983
0.263722
0.258227
0.189533
0.189533
0.175794
0.101605
0.925931
0.159308
0.170299
0.153812
0.159308
0.162055
0.159308
0.162055
0.151064
0.148317
0.134578
0.178542
0.214263
0.206019
0.197776
0.206019
0.197776
0.189533
0.189533
0.184037
0.181290
0.181290
0.217010
0.247236
0.228001
0.178542
0.173046
0.175794
0.134578
0.340659
0.173046
0.148317
0.145569
0.156560
0.148317
0.153812
0.153812
0.153812
0.151064
0.134578
0.131830
0.178542
0.217010
0.217010
0.214263
0.206019
0.200524
0.192281
0.200524
0.189533
0.192281
0.195028
0.197776
0.238992
0.255479
0.247236
0.192281
0.189533
0.184037
0.162055
0.260974
0.302191
0.164803
0.164803
0.159308
0.164803
0.173046
0.170299
0.167551
0.178542
0.162055
0.167551
0.214263
0.222506
0.219758
0.225254
0.206019
0.200524
0.203272
0.192281
0.200524
0.200524
0.192281
0.238992
0.266470
0.241740
0.206019
0.197776
0.181290
0.164803
0.310434
0.134578
0.173046
0.170299
0.164803
0.170299
0.173046
0.167551
0.178542
0.175794
0.173046
0.178542
0.214263
0.211515
0.217010
0.211515
0.203272
0.200524
0.189533
0.181290
0.189533
0.197776
0.214263
0.244488
0.252731
0.173046
0.178542
0.175794
0.065884
0.846246
0.156560
0.142821
0.145569
0.156560
0.148317
0.159308
0.159308
0.134578
0.131830
0.156560
0.189533
0.206019
0.214263
0.197776
0.197776
0.192281
0.184037
0.189533
0.189533
0.186785
0.214263
0.252731
0.230749
0.192281
0.184037
0.173046
0.123587
0.662147
0.123587
0.167551
0.167551
0.159308
0.170299
0.178542
0.164803
0.167551
0.164803
0.145569
0.184037
0.233497
0.233497
0.236245
0.228001
0.217010
0.217010
0.219758
0.206019
0.211515
0.217010
0.236245
0.277461
0.266470
0.217010
0.206019
0.200524
0.115344
0.865481
0.195028
0.178542
0.178542
0.189533
0.178542
0.184037
0.195028
0.181290
0.181290
0.192281
0.208767
0.233497
0.244488
0.228001
0.230749
0.228001
0.214263
0.211515
0.211515
0.200524
0.225254
0.266470
0.263722
0.266470
0.208767
0.192281
0.186785
0.200524
0.321425
0.173046
0.181290
0.173046
0.173046
0.178542
0.170299
0.181290
0.181290
0.164803
0.173046
0.214263
0.211515
0.211515
0.219758
0.200524
0.189533
0.195028
0.178542
0.184037
0.189533
0.181290
0.225254
0.247236
0.241740
0.173046
0.159308
0.151064
0.038406
0.777552
0.118091
0.131830
0.145569
0.134578
0.140073
0.140073
0.131830
0.131830
0.129082
0.115344
0.131830
0.178542
0.184037
0.192281
0.186785
0.184037
0.164803
0.175794
0.159308
0.153812
0.170299
0.170299
0.214263
0.219758
0.197776
0.164803
0.159308
0.145569
0.071380
0.865481
0.134578
0.142821
0.151064
0.142821
0.148317
0.153812
0.156560
0.145569
0.142821
0.131830
0.184037
0.225254
0.225254
0.219758
0.228001
0.214263
0.217010
0.217010
0.206019
0.214263
0.222506
0.225254
0.271965
0.277461
0.271965
0.219758
0.214263
0.203272
0.071380
0.711606
0.170299
0.195028
0.197776
0.195028
0.197776
0.206019
0.197776
0.208767
0.211515
0.203272
0.228001
0.255479
0.255479
0.252731
0.249983
0.236245
0.230749
0.233497
0.211515
0.222506
0.233497
0.258227
0.293947
0.280209
0.266470
0.211515
0.211515
0.189533
0.222506
0.664894
0.195028
0.192281
0.195028
0.186785
0.184037
0.197776
0.197776
0.200524
0.203272
0.203272
0.233497
0.241740
0.219758
0.225254
0.219758
0.197776
0.200524
0.195028
0.186785
0.211515
0.252731
0.233497
0.195028
0.173046
0.159308
0.142821
0.233497
0.156560
0.151064
0.142821
0.129082
0.142821
0.142821
0.129082
0.142821
0.129082
0.104353
0.162055
0.184037
0.184037
0.192281
0.184037
0.173046
0.173046
0.173046
0.167551
0.173046
0.228001
0.225254
0.208767
0.175794
0.173046
0.170299
0.211515
0.228001
0.167551
0.170299
0.164803
0.181290
0.170299
0.162055
0.167551
0.153812
0.148317
0.178542
0.225254
0.219758
0.230749
0.225254
0.211515
0.211515
0.200524
0.200524
0.203272
0.208767
0.236245
0.269218
0.252731
0.203272
0.195028
0.186785
0.107100
0.675885
0.129082
0.159308
0.164803
0.173046
0.162055
0.170299
0.175794
0.167551
0.173046
0.167551
0.173046
0.206019
0.214263
0.208767
0.214263
0.208767
0.186785
0.195028
0.195028
0.186785
0.197776
0.228001
0.244488
0.252731
0.222506
0.175794
0.178542
0.129082
0.140073
0.612687
0.159308
0.151064
0.156560
0.162055
0.151064
0.156560
0.151064
0.151064
0.145569
0.137326
0.159308
0.195028
0.189533
0.175794
0.186785
0.181290
0.153812
0.159308
0.162055
0.148317
0.178542
0.214263
0.208767
0.203272
0.164803
0.134578
0.142821
0.041154
0.827012
0.120839
0.123587
0.109848
0.120839
0.118091
0.112596
0.134578
0.123587
0.107100
0.101605
0.129082
0.164803
0.195028
0.189533
0.184037
0.186785
0.181290
0.173046
0.178542
0.178542
0.175794
0.200524
0.228001
0.236245
0.255479
0.181290
0.164803
0.175794
0.074127
0.794039
0.134578
0.148317
0.153812
0.164803
0.159308
0.156560
0.164803
0.159308
0.153812
0.153812
0.189533
0.208767
0.222506
0.217010
0.200524
0.206019
0.197776
0.197776
0.197776
0.200524
0.197776
0.236245
0.266470
0.247236
0.241740
0.200524
0.178542
0.181290
0.148317
0.412101
0.181290
0.167551
0.164803
0.173046
0.178542
0.170299
0.178542
0.175794
0.167551
0.192281
0.214263
0.203272
0.214263
0.203272
0.186785
0.189533
0.181290
0.173046
0.181290
0.184037
0.219758
0.225254
0.225254
0.148317
0.156560
0.142821
0.041154
0.816021
0.120839
0.118091
0.134578
0.126335
0.123587
0.129082
0.129082
0.123587
0.112596
0.115344
0.156560
0.186785
0.175794
0.164803
0.159308
0.156560
0.140073
0.148317
0.151064
0.178542
0.217010
0.211515
0.140073
0.140073
0.137326
0.126335
0.392867
0.126335
0.120839
0.129082
0.120839
0.120839
0.131830
0.131830
0.123587
0.126335
0.123587
0.170299
0.192281
0.189533
0.184037
0.181290
0.170299
0.159308
0.159308
0.170299
0.156560
0.167551
0.186785
0.217010
0.222506
0.236245
0.153812
0.159308
0.131830
0.282956
0.362642
0.137326
0.129082
0.137326
0.129082
0.123587
0.140073
0.140073
0.129082
0.137326
0.153812
0.184037
0.197776
0.189533
0.181290
0.178542
0.175794
0.164803
0.181290
0.173046
0.184037
0.233497
0.225254
0.236245
0.167551
0.156560
0.137326
0.170299
0.736336
0.129082
0.134578
0.131830
0.120839
0.126335
0.118091
0.126335
0.126335
0.120839
0.104353
0.137326
0.167551
0.170299
0.170299
0.162055
0.153812
0.151064
0.145569
0.142821
0.167551
0.151064
0.178542
0.219758
0.203272
0.162055
0.142821
0.140073
0.126335
0.189533
0.379128
0.098857
0.123587
0.129082
0.115344
0.126335
0.115344
0.129082
0.129082
0.115344
0.090614
0.115344
0.148317
0.186785
0.189533
0.186785
0.184037
0.175794
0.173046
0.170299
0.175794
0.164803
0.175794
0.200524
0.236245
0.219758
0.200524
0.167551
0.164803
0.162055
0.134578
0.538498
0.156560
0.148317
0.140073
0.156560
0.151064
0.148317
0.153812
0.151064
0.137326
0.145569
0.186785
0.206019
0.217010
0.206019
0.197776
0.203272
0.195028
0.186785
0.184037
0.195028
0.184037
0.228001
0.255479
0.230749
0.211515
0.184037
0.178542
0.131830
0.467056
0.096109
0.162055
0.162055
0.164803
0.175794
0.170299
0.167551
0.173046
0.167551
0.162055
0.200524
0.217010
0.225254
0.222506
0.208767
0.208767
0.211515
0.195028
0.192281
0.197776
0.195028
0.228001
0.255479
0.249983
0.217010
0.197776
0.178542
0.098857
0.703363
0.093362
0.140073
0.151064
0.151064
0.145569
0.140073
0.153812
0.134578
0.137326
0.115344
0.162055
0.184037
0.184037
0.184037
0.181290
0.173046
0.167551
0.162055
0.162055
0.170299
0.197776
0.230749
0.219758
0.186785
0.164803
0.153812
0.104353
0.686876
0.123587
0.142821
0.137326
0.142821
0.142821
0.140073
0.145569
0.140073
0.126335
0.145569
0.200524
0.219758
0.211515
0.219758
0.211515
0.197776
0.197776
0.195028
0.200524
0.203272
0.230749
0.269218
0.260974
0.252731
0.197776
0.189533
0.134578
0.293947
0.263722
0.167551
0.156560
0.167551
0.159308
0.159308
0.167551
0.156560
0.162055
0.156560
0.184037
0.217010
0.233497
0.225254
0.208767
0.211515
0.197776
0.200524
0.200524
0.200524
0.200524
0.241740
0.258227
0.249983
0.211515
0.197776
0.192281
0.134578
0.560480
0.112596
0.173046
0.167551
0.167551
0.175794
0.173046
0.178542
0.181290
0.167551
0.167551
0.203272
0.225254
0.233497
0.236245
0.219758
0.200524
0.208767
0.189533
0.195028
0.208767
0.208767
0.238992
0.244488
0.258227
0.186785
0.189533
0.178542
0.065884
0.846246
0.153812
0.156560
0.159308
0.151064
0.148317
0.162055
0.151064
0.148317
0.148317
0.129082
0.156560
0.206019
0.214263
0.203272
0.203272
0.192281
0.181290
0.186785
0.173046
0.178542
0.184037
0.206019
0.225254
0.222506
0.173046
0.164803
0.170299
0.104353
0.527507
0.107100
0.153812
0.156560
0.164803
0.153812
0.151064
0.151064
0.153812
0.148317
0.142821
0.148317
0.200524
0.228001
0.222506
0.214263
0.222506
0.203272
0.200524
0.203272
0.195028
0.203272
0.214263
0.238992
0.260974
0.258227
0.236245
0.195028
0.195028
0.181290
0.131830
0.733588
0.175794
0.170299
0.175794
0.164803
0.170299
0.173046
0.173046
0.181290
0.173046
0.164803
0.184037
0.214263
0.230749
0.228001
0.214263
0.206019
0.203272
0.197776
0.192281
0.192281
0.203272
0.211515
0.255479
0.247236
0.208767
0.186785
0.178542
0.153812
0.277461
0.101605
0.142821
0.151064
0.148317
0.140073
0.142821
0.145569
0.137326
0.134578
0.126335
0.159308
0.189533
0.200524
0.189533
0.178542
0.178542
0.159308
0.173046
0.170299
0.164803
0.181290
0.211515
0.203272
0.173046
0.148317
0.134578
0.068632
0.346155
0.063136
0.120839
0.123587
0.118091
0.126335
0.129082
0.131830
0.120839
0.120839
0.115344
0.167551
0.195028
0.189533
0.186785
0.192281
0.170299
0.175794
0.181290
0.170299
0.173046
0.217010
0.236245
0.208767
0.195028
0.170299
0.159308
0.057641
0.838003
0.145569
0.142821
0.134578
0.134578
0.140073
0.140073
0.142821
0.151064
0.134578
0.142821
0.184037
0.197776
0.200524
0.192281
0.178542
0.173046
0.175794
0.170299
0.170299
0.178542
0.214263
0.214263
0.244488
0.167551
0.153812
0.153812
0.041154
0.785795
0.140073
0.129082
0.140073
0.142821
0.142821
0.140073
0.153812
0.140073
0.137326
0.151064
0.170299
0.186785
0.178542
0.164803
0.173046
0.151064
0.140073
0.156560
0.156560
0.156560
0.203272
0.197776
0.164803
0.137326
0.131830
0.118091
0.109848
0.453317
0.098857
0.098857
0.104353
0.096109
0.101605
0.104353
0.104353
0.096109
0.087866
0.076875
0.107100
0.159308
0.148317
0.148317
0.151064
0.137326
0.142821
0.137326
0.131830
0.137326
0.153812
0.178542
0.184037
0.206019
0.148317
0.140073
0.148317
0.087866
0.357146
0.123587
0.123587
0.129082
0.140073
0.126335
0.129082
0.131830
0.131830
0.129082
0.120839
0.118091
0.162055
0.200524
0.192281
0.203272
0.203272
0.184037
0.184037
0.192281
0.178542
0.184037
0.189533
0.214263
0.228001
0.252731
0.167551
0.167551
0.181290
0.060388
0.763813
0.115344
0.148317
0.145569
0.156560
0.142821
0.151064
0.162055
0.156560
0.156560
0.164803
0.162055
0.200524
0.211515
0.200524
0.200524
0.195028
0.184037
0.181290
0.181290
0.181290
0.189533
0.225254
0.236245
0.225254
0.189533
0.164803
0.170299
0.063136
0.840751
0.148317
0.153812
0.145569
0.145569
0.164803
0.137326
0.142821
0.151064
0.137326
0.131830
0.164803
0.173046
0.170299
0.181290
0.159308
0.156560
0.156560
0.142821
0.156560
0.162055
0.173046
0.203272
0.181290
0.142821
0.140073
0.134578
0.065884
0.598948
0.076875
0.120839
0.109848
0.123587
0.107100
0.107100
0.118091
0.104353
0.101605
0.093362
0.112596
0.153812
0.167551
0.162055
0.159308
0.156560
0.148317
0.151064
0.156560
0.151064
0.156560
0.203272
0.208767
0.203272
0.159308
0.148317
0.112596
0.228001
0.164803
0.137326
0.145569
0.129082
0.140073
0.148317
0.134578
0.145569
0.140073
0.131830
0.181290
0.206019
0.200524
0.200524
0.203272
0.178542
0.178542
0.186785
0.175794
0.186785
0.219758
0.241740
0.230749
0.214263
0.164803
0.162055
0.151064
0.217010
0.181290
0.156560
0.142821
0.153812
0.145569
0.142821
0.148317
0.151064
0.145569
0.156560
0.192281
0.206019
0.203272
0.208767
0.189533
0.189533
0.192281
0.178542
0.184037
0.197776
0.225254
0.249983
0.241740
0.186785
0.184037
0.175794
0.076875
0.854490
0.167551
0.156560
0.156560
0.156560
0.148317
0.164803
0.162055
0.159308
0.153812
0.156560
0.197776
0.206019
0.214263
0.206019
0.189533
0.186785
0.175794
0.184037
0.189533
0.175794
0.214263
0.241740
0.228001
0.186785
0.167551
0.170299
0.115344
0.557732
0.118091
0.151064
0.151064
0.145569
0.148317
0.148317
0.134578
0.148317
0.129082
0.118091
0.142821
0.184037
0.200524
0.208767
0.211515
0.197776
0.195028
0.195028
0.189533
0.195028
0.208767
0.225254
0.258227
0.255479
0.230749
0.203272
0.195028
0.189533
0.131830
0.772057
0.175794
0.170299
0.175794
0.175794
0.173046
0.173046
0.170299
0.178542
0.173046
0.159308
0.184037
0.219758
0.225254
0.230749
0.225254
0.225254
0.206019
0.217010
0.195028
0.206019
0.206019
0.208767
0.260974
0.266470
0.241740
0.203272
0.186785
0.181290
0.118091
0.579714
0.109848
0.164803
0.162055
0.148317
0.164803
0.167551
0.153812
0.164803
0.170299
0.153812
0.162055
0.203272
0.211515
0.228001
0.225254
0.203272
0.206019
0.192281
0.184037
0.192281
0.195028
0.214263
0.247236
0.247236
0.200524
0.178542
0.184037
0.115344
0.436831
0.118091
0.140073
0.145569
0.134578
0.131830
0.142821
0.140073
0.131830
0.134578
0.120839
0.115344
0.178542
0.184037
0.175794
0.173046
0.170299
0.142821
0.156560
0.156560
0.151064
0.159308
0.203272
0.195028
0.170299
0.151064
0.126335
0.082371
0.763813
0.087866
0.131830
0.131830
0.120839
0.123587
0.123587
0.115344
0.123587
0.112596
0.098857
0.151064
0.186785
0.189533
0.195028
0.189533
0.178542
0.178542
0.184037
0.181290
0.189533
0.208767
0.238992
0.238992
0.208767
0.178542
0.178542
0.101605
0.810525
0.178542
0.164803
0.153812
0.167551
0.167551
0.162055
0.170299
0.167551
0.159308
0.175794
0.200524
0.217010
0.230749
0.222506
0.211515
0.217010
0.203272
0.192281
0.203272
0.206019
0.228001
0.266470
0.252731
0.225254
0.197776
0.189533
0.184037
0.238992
0.228001
0.167551
0.175794
0.170299
0.164803
0.178542
0.178542
0.170299
0.175794
0.186785
0.189533
0.225254
0.238992
0.214263
0.219758
0.211515
0.192281
0.192281
0.200524
0.184037
0.214263
0.255479
0.238992
0.219758
0.175794
0.173046
0.156560
0.115344
0.816021
0.140073
0.142821
0.129082
0.137326
0.140073
0.131830
0.142821
0.137326
0.123587
0.112596
0.156560
0.170299
0.184037
0.186785
0.162055
0.167551
0.164803
0.164803
0.164803
0.153812
0.192281
0.219758
0.206019
0.153812
0.142821
0.151064
0.093362
0.186785
0.362642
0.123587
0.126335
0.134578
0.131830
0.134578
0.148317
0.140073
0.140073
0.126335
0.126335
0.203272
0.225254
0.214263
0.230749
0.214263
0.200524
0.214263
0.214263
0.208767
0.222506
0.219758
0.241740
0.277461
0.277461
0.208767
0.208767
0.203272
0.115344
0.846246
0.189533
0.175794
0.181290
0.184037
0.181290
0.192281
0.186785
0.186785
0.184037
0.181290
0.186785
0.233497
0.244488
0.236245
0.241740
0.230749
0.208767
0.214263
0.228001
0.214263
0.222506
0.252731
0.277461
0.263722
0.230749
0.203272
0.203272
0.170299
0.255479
0.288452
0.181290
0.181290
0.189533
0.181290
0.173046
0.189533
0.195028
0.175794
0.186785
0.181290
0.203272
0.236245
0.238992
0.211515
0.222506
0.217010
0.200524
0.203272
0.197776
0.186785
0.228001
0.255479
0.233497
0.217010
0.181290
0.162055
0.167551
0.206019
0.241740
0.156560
0.151064
0.151064
0.153812
0.153812
0.148317
0.159308
0.140073
0.126335
0.137326
0.186785
0.197776
0.206019
0.203272
0.178542
0.186785
0.178542
0.167551
0.184037
0.195028
0.230749
0.230749
0.195028
0.162055
0.173046
0.148317
0.346155
0.109848
0.159308
0.153812
0.159308
0.164803
0.156560
0.170299
0.167551
0.148317
0.159308
0.203272
0.228001
0.238992
0.236245
0.222506
0.228001
0.219758
0.217010
0.225254
0.222506
0.230749
0.285704
0.271965
0.219758
0.219758
0.200524
0.153812
0.607192
0.170299
0.178542
0.189533
0.186785
0.184037
0.197776
0.186785
0.178542
0.197776
0.195028
0.211515
0.241740
0.238992
0.236245
0.222506
0.217010
0.211515
0.217010
0.206019
0.208767
0.247236
0.269218
0.260974
0.211515
0.197776
0.184037
0.112596
0.805030
0.184037
0.181290
0.178542
0.175794
0.175794
0.175794
0.175794
0.181290
0.175794
0.164803
0.186785
0.217010
0.208767
0.211515
0.208767
0.192281
0.200524
0.186785
0.178542
0.186785
0.208767
0.228001
0.236245
0.228001
0.167551
0.170299
0.164803
0.079623
0.722597
0.115344
0.142821
0.148317
0.140073
0.148317
0.153812
0.140073
0.134578
0.131830
0.120839
0.140073
0.186785
0.192281
0.186785
0.184037
0.186785
0.170299
0.184037
0.178542
0.178542
0.192281
0.217010
0.233497
0.244488
0.195028
0.178542
0.184037
0.123587
0.609939
0.123587
0.173046
0.164803
0.170299
0.173046
0.167551
0.173046
0.175794
0.164803
0.167551
0.167551
0.208767
0.244488
0.247236
0.244488
0.241740
0.225254
0.219758
0.225254
0.233497
0.217010
0.244488
0.285704
0.266470
0.260974
0.225254
0.211515
0.211515
0.109848
0.890210
0.197776
0.189533
0.178542
0.189533
0.192281
0.181290
0.192281
0.186785
0.181290
0.189533
0.228001
0.236245
0.247236
0.236245
0.228001
0.233497
0.222506
0.214263
0.225254
0.219758
0.238992
0.282956
0.269218
0.241740
0.228001
0.208767
0.211515
0.153812
0.631921
0.186785
0.189533
0.184037
0.181290
0.189533
0.189533
0.189533
0.192281
0.186785
0.178542
0.203272
0.225254
0.225254
0.217010
0.206019
0.195028
0.197776
0.192281
0.186785
0.208767
0.244488
0.238992
0.247236
0.189533
0.173046
0.167551
0.362642
0.156560
0.159308
0.142821
0.145569
0.156560
0.153812
0.145569
0.153812
0.129082
0.129082
0.153812
0.197776
0.208767
0.217010
0.206019
0.203272
0.200524
0.200524
0.197776
0.203272
0.214263
0.252731
0.260974
0.228001
0.206019
0.206019
0.181290
0.409353
0.140073
0.195028
0.181290
0.197776
0.192281
0.200524
0.203272
0.200524
0.197776
0.192281
0.219758
0.252731
0.266470
0.255479
0.258227
0.249983
0.244488
0.241740
0.244488
0.247236
0.258227
0.302191
0.296695
0.304939
0.247236
0.230749
0.200524
0.505524
0.148317
0.206019
0.217010
0.208767
0.206019
0.206019
0.214263
0.200524
0.206019
0.206019
0.219758
0.255479
0.255479
0.252731
0.255479
0.236245
0.228001
0.228001
0.225254
0.225254
0.260974
0.293947
0.271965
0.255479
0.219758
0.211515
0.159308
0.530254
0.373633
0.195028
0.186785
0.175794
0.178542
0.173046
0.175794
0.173046
0.178542
0.162055
0.192281
0.206019
0.217010
0.211515
0.197776
0.200524
0.192281
0.184037
0.184037
0.195028
0.200524
0.225254
0.225254
0.208767
0.178542
0.175794
0.164803
0.101605
0.623678
0.145569
0.151064
0.148317
0.140073
0.148317
0.156560
0.151064
0.140073
0.142821
0.126335
0.162055
0.195028
0.206019
0.200524
0.197776
0.195028
0.192281
0.192281
0.186785
0.186785
0.203272
0.228001
0.249983
0.244488
0.200524
0.203272
0.197776
0.142821
0.255479
0.684129
0.173046
0.178542
0.184037
0.186785
0.175794
0.186785
0.184037
0.178542
0.173046
0.181290
0.208767
0.247236
0.249983
0.244488
0.252731
0.241740
0.233497
0.233497
0.225254
0.228001
0.241740
0.277461
0.285704
0.299443
0.222506
0.217010
0.228001
0.148317
0.747327
0.186785
0.197776
0.197776
0.203272
0.200524
0.197776
0.200524
0.195028
0.197776
0.203272
0.214263
0.238992
0.252731
0.238992
0.233497
0.244488
0.228001
0.214263
0.217010
0.225254
0.249983
0.282956
0.277461
0.266470
0.211515
0.197776
0.151064
0.524759
0.299443
0.184037
0.181290
0.181290
0.173046
0.173046
0.178542
0.170299
0.164803
0.162055
0.175794
0.219758
0.225254
0.217010
0.219758
0.195028
0.197776
0.203272
0.192281
0.197776
0.244488
0.236245
0.247236
0.184037
0.178542
0.164803
0.296695
0.148317
0.148317
0.156560
0.148317
0.142821
0.156560
0.151064
0.151064
0.148317
0.131830
0.167551
0.225254
0.222506
0.228001
0.214263
0.206019
0.203272
0.208767
0.203272
0.206019
0.225254
0.263722
0.249983
0.249983
0.200524
0.197776
0.153812
0.585210
0.109848
0.178542
0.164803
0.162055
0.170299
0.170299
0.175794
0.175794
0.167551
0.170299
0.214263
0.222506
0.225254
0.230749
0.222506
0.208767
0.206019
0.197776
0.192281
0.208767
0.217010
0.255479
0.252731
0.217010
0.192281
0.186785
0.098857
0.282956
0.164803
0.159308
0.162055
0.170299
0.162055
0.159308
0.164803
0.170299
0.164803
0.178542
0.189533
0.214263
0.222506
0.208767
0.208767
0.203272
0.184037
0.184037
0.178542
0.178542
0.184037
0.219758
0.230749
0.236245
0.170299
0.164803
0.170299
0.057641
0.848994
0.087866
0.142821
0.140073
0.145569
0.145569
0.137326
0.140073
0.151064
0.129082
0.123587
0.162055
0.186785
0.186785
0.206019
0.184037
0.186785
0.175794
0.164803
0.173046
0.173046
0.184037
0.206019
0.228001
0.214263
0.167551
0.167551
0.162055
0.090614
0.700615
0.104353
0.153812
0.156560
0.159308
0.164803
0.167551
0.159308
0.162055
0.153812
0.148317
0.156560
0.214263
0.228001
0.228001
0.233497
0.219758
0.208767
0.217010
0.211515
0.211515
0.225254
0.222506
0.271965
0.271965
0.263722
0.219758
0.214263
0.206019
0.109848
0.892958
0.189533
0.189533
0.184037
0.175794
0.186785
0.192281
0.186785
0.186785
0.184037
0.184037
0.222506
0.244488
0.236245
0.238992
0.228001
0.222506
0.228001
0.225254
0.208767
0.222506
0.219758
0.255479
0.280209
0.271965
0.238992
0.219758
0.208767
0.203272
0.145569
0.695120
0.189533
0.197776
0.200524
0.189533
0.189533
0.195028
0.189533
0.192281
0.195028
0.189533
0.203272
0.233497
0.225254
0.222506
0.225254
0.208767
0.206019
0.208767
0.200524
0.200524
0.219758
0.241740
0.247236
0.236245
0.175794
0.184037
0.184037
0.142821
0.489038
0.156560
0.156560
0.151064
0.151064
0.153812
0.159308
0.167551
0.151064
0.140073
0.162055
0.189533
0.208767
0.208767
0.203272
0.200524
0.195028
0.192281
0.192281
0.203272
0.203272
0.238992
0.255479
0.255479
0.203272
0.200524
0.184037
0.373633
0.140073
0.184037
0.192281
0.186785
0.186785
0.192281
0.197776
0.186785
0.189533
0.189533
0.233497
0.255479
0.266470
0.252731
0.247236
0.249983
0.233497
0.230749
0.241740
0.230749
0.269218
0.296695
0.277461
0.247236
0.230749
0.208767
0.145569
0.788543
0.192281
0.184037
0.195028
0.184037
0.195028
0.206019
0.192281
0.195028
0.200524
0.189533
0.230749
0.258227
0.247236
0.241740
0.244488
0.225254
0.214263
0.222506
0.211515
0.217010
0.228001
0.238992
0.266470
0.274713
0.203272
0.200524
0.197776
0.071380
0.821516
0.184037
0.173046
0.186785
0.189533
0.181290
0.186785
0.181290
0.170299
0.173046
0.184037
0.200524
0.225254
0.219758
0.208767
0.200524
0.195028
0.186785
0.189533
0.173046
0.164803
0.184037
0.219758
0.219758
0.219758
0.173046
0.162055
0.164803
0.101605
0.533002
0.189533
0.142821
0.126335
0.134578
0.140073
0.123587
0.134578
0.137326
0.115344
0.120839
0.123587
0.159308
0.189533
0.184037
0.181290
0.178542
0.173046
0.159308
0.164803
0.173046
0.164803
0.181290
0.200524
0.225254
0.203272
0.192281
0.162055
0.164803
0.109848
0.406606
0.508272
0.153812
0.153812
0.159308
0.164803
0.153812
0.167551
0.167551
0.159308
0.145569
0.162055
0.206019
0.217010
0.225254
0.214263
0.211515
0.211515
0.197776
0.197776
0.208767
0.203272
0.197776
0.244488
0.266470
0.263722
0.233497
0.206019
0.203272
0.200524
0.148317
0.667642
0.192281
0.164803
0.181290
0.192281
0.178542
0.184037
0.192281
0.181290
0.192281
0.195028
0.208767
0.236245
0.244488
0.233497
0.225254
0.228001
0.208767
0.208767
0.214263
0.206019
0.230749
0.266470
0.258227
0.244488
0.197776
0.189533
0.181290
0.255479
0.208767
0.175794
0.175794
0.162055
0.175794
0.178542
0.159308
0.178542
0.170299
0.162055
0.170299
0.206019
0.203272
0.208767
0.203272
0.181290
0.197776
0.181290
0.175794
0.175794
0.186785
0.208767
0.241740
0.233497
0.162055
0.167551
0.167551
0.087866
0.717102
0.118091
0.140073
0.142821
0.140073
0.126335
0.126335
0.140073
0.131830
0.131830
0.115344
0.109848
0.170299
0.192281
0.178542
0.181290
0.178542
0.164803
0.173046
0.184037
0.175794
0.189533
0.217010
0.236245
0.244488
0.186785
0.170299
0.184037
0.071380
0.835255
0.159308
0.164803
0.151064
0.170299
0.175794
0.159308
0.175794
0.170299
0.151064
0.178542
0.222506
0.222506
0.222506
0.222506
0.211515
0.217010
0.219758
0.200524
0.219758
0.222506
0.236245
0.277461
0.269218
0.244488
0.211515
0.208767
0.123587
0.519263
0.134578
0.181290
0.186785
0.197776
0.184037
0.195028
0.192281
0.189533
0.192281
0.192281
0.236245
0.247236
0.247236
0.230749
0.233497
0.233497
0.219758
0.219758
0.225254
0.217010
0.230749
0.266470
0.274713
0.285704
0.233497
0.203272
0.208767
0.173046
0.648408
0.178542
0.184037
0.173046
0.186785
0.178542
0.175794
0.184037
0.186785
0.178542
0.173046
0.189533
0.219758
0.230749
0.230749
0.211515
0.208767
0.203272
0.200524
0.192281
0.203272
0.195028
0.230749
0.247236
0.241740
0.244488
0.192281
0.186785
0.173046
0.208767
0.543993
0.131830
0.151064
0.153812
0.156560
0.153812
0.145569
0.159308
0.148317
0.137326
0.131830
0.181290
0.211515
0.228001
0.222506
0.222506
0.228001
0.219758
0.211515
0.222506
0.217010
0.214263
0.225254
0.260974
0.263722
0.285704
0.217010
0.206019
0.208767
0.123587
0.755570
0.175794
0.189533
0.184037
0.197776
0.195028
0.189533
0.200524
0.197776
0.189533
0.197776
0.206019
0.249983
0.260974
0.258227
0.249983
0.247236
0.238992
0.233497
0.233497
0.238992
0.233497
0.247236
0.280209
0.296695
0.285704
0.244488
0.228001
0.225254
0.151064
0.673138
0.354398
0.214263
0.200524
0.208767
0.208767
0.208767
0.217010
0.203272
0.203272
0.203272
0.230749
0.252731
0.252731
0.255479
0.238992
0.230749
0.225254
0.211515
0.219758
0.219758
0.217010
0.252731
0.258227
0.244488
0.200524
0.184037
0.175794
0.074127
0.730840
0.156560
0.167551
0.162055
0.156560
0.156560
0.162055
0.153812
0.159308
0.142821
0.159308
0.217010
0.225254
0.203272
0.206019
0.195028
0.181290
0.192281
0.189533
0.181290
0.214263
0.247236
0.228001
0.189533
0.173046
0.178542
0.115344
0.741831
0.145569
0.159308
0.159308
0.153812
0.162055
0.159308
0.153812
0.159308
0.140073
0.145569
0.197776
0.217010
0.217010
0.222506
0.214263
0.200524
0.208767
0.203272
0.197776
0.203272
0.214263
0.236245
0.252731
0.252731
0.184037
0.186785
0.186785
0.076875
0.769309
0.170299
0.156560
0.159308
0.162055
0.162055
0.164803
0.156560
0.156560
0.159308
0.156560
0.186785
0.217010
0.219758
0.200524
0.197776
0.197776
0.184037
0.195028
0.189533
0.175794
0.197776
0.230749
0.230749
0.260974
0.173046
0.159308
0.170299
0.065884
0.593453
0.142821
0.137326
0.137326
0.140073
0.142821
0.142821
0.142821
0.148317
0.137326
0.129082
0.156560
0.178542
0.184037
0.181290
0.173046
0.175794
0.162055
0.164803
0.162055
0.167551
0.164803
0.211515
0.211515
0.208767
0.156560
0.142821
0.140073
0.016424
0.717102
0.101605
0.129082
0.123587
0.123587
0.129082
0.131830
0.115344
0.126335
0.107100
0.098857
0.156560
0.189533
0.197776
0.197776
0.195028
0.184037
0.184037
0.181290
0.184037
0.189533
0.192281
0.211515
0.255479
0.238992
0.200524
0.189533
0.181290
0.162055
0.247236
0.236245
0.162055
0.167551
0.164803
0.162055
0.164803
0.167551
0.164803
0.167551
0.156560
0.153812
0.211515
0.244488
0.236245
0.241740
0.230749
0.214263
0.225254
0.219758
0.214263
0.225254
0.219758
0.247236
0.285704
0.266470
0.219758
0.228001
0.208767
0.184037
0.387371
0.131830
0.189533
0.192281
0.189533
0.195028
0.200524
0.195028
0.189533
0.186785
0.192281
0.192281
0.236245
0.258227
0.238992
0.236245
0.233497
0.222506
0.225254
0.219758
0.222506
0.233497
0.252731
0.285704
0.274713
0.249983
0.203272
0.211515
0.159308
0.414849
0.120839
0.175794
0.164803
0.173046
0.178542
0.173046
0.178542
0.175794
0.159308
0.170299
0.175794
0.195028
0.206019
0.206019
0.189533
0.195028
0.175794
0.170299
0.173046
0.173046
0.184037
0.211515
0.228001
0.228001
0.153812
0.159308
0.153812
0.068632
0.818769
0.118091
0.137326
0.134578
0.129082
0.137326
0.126335
0.129082
0.129082
0.098857
0.120839
0.170299
0.189533
0.192281
0.192281
0.189533
0.181290
0.184037
0.181290
0.189533
0.200524
0.244488
0.241740
0.255479
0.192281
0.181290
0.192281
0.120839
0.898454
0.173046
0.156560
0.153812
0.162055
0.167551
0.159308
0.167551
0.156560
0.145569
0.181290
0.211515
0.219758
0.214263
0.214263
0.203272
0.197776
0.189533
0.186785
0.197776
0.200524
0.238992
0.252731
0.241740
0.186785
0.178542
0.178542
0.115344
0.557732
0.159308
0.148317
0.159308
0.162055
0.159308
0.162055
0.162055
0.159308
0.156560
0.170299
0.200524
0.217010
0.219758
0.200524
0.211515
0.197776
0.192281
0.197776
0.197776
0.192281
0.203272
0.230749
0.252731
0.249983
0.211515
0.184037
0.181290
0.131830
0.354398
0.134578
0.164803
0.153812
0.162055
0.153812
0.148317
0.164803
0.178542
0.200524
0.228001
0.195028
0.162055
0.189533
0.184037
0.184037
0.178542
0.173046
0.142821
0.725345
0.145569
0.178542
0.178542
0.167551
0.181290
0.192281
0.181290
0.186785
0.173046
0.148317
0.151064
0.175794
0.192281
0.192281
0.197776
0.189533
0.189533
0.197776
0.189533
0.189533
0.189533
0.192281
0.192281
0.206019
0.206019
0.222506
0.247236
0.247236
0.260974
0.200524
0.195028
0.203272
0.107100
0.859985
0.175794
0.175794
0.173046
0.170299
0.173046
0.184037
0.175794
0.184037
0.156560
0.153812
0.208767
0.238992
0.238992
0.247236
0.230749
0.217010
0.222506
0.211515
0.203272
0.208767
0.206019
0.203272
0.244488
0.263722
0.241740
0.217010
0.192281
0.184037
0.112596
0.527507
0.148317
0.167551
0.162055
0.156560
0.162055
0.159308
0.156560
0.164803
0.159308
0.153812
0.192281
0.208767
0.211515
0.214263
0.200524
0.192281
0.173046
0.184037
0.181290
0.184037
0.186785
0.197776
0.249983
0.230749
0.247236
0.181290
0.162055
0.151064
0.107100
0.733588
0.134578
0.134578
0.131830
0.129082
0.134578
0.129082
0.131830
0.129082
0.104353
0.126335
0.170299
0.170299
0.173046
0.173046
0.151064
0.142821
0.151064
0.140073
0.153812
0.156560
0.195028
0.195028
0.214263
0.131830
0.123587
0.126335
0.057641
0.579714
0.104353
0.096109
0.098857
0.112596
0.098857
0.112596
0.115344
0.107100
0.093362
0.104353
0.164803
0.184037
0.189533
0.192281
0.178542
0.181290
0.175794
0.162055
0.184037
0.181290
0.186785
0.230749
0.236245
0.244488
0.189533
0.173046
0.167551
0.118091
0.719849
0.145569
0.162055
0.156560
0.164803
0.167551
0.159308
0.162055
0.170299
0.159308
0.162055
0.181290
0.219758
0.228001
0.228001
0.214263
0.208767
0.208767
0.197776
0.197776
0.214263
0.206019
0.247236
0.277461
0.258227
0.208767
0.200524
0.192281
0.134578
0.395615
0.140073
0.186785
0.181290
0.186785
0.192281
0.192281
0.189533
0.200524
0.195028
0.181290
0.197776
0.238992
0.244488
0.236245
0.236245
0.222506
0.206019
0.219758
0.197776
0.211515
0.222506
0.238992
0.269218
0.269218
0.230749
0.211515
0.200524
0.159308
0.228001
0.357146
0.173046
0.175794
0.173046
0.170299
0.184037
0.173046
0.175794
0.170299
0.153812
0.142821
0.195028
0.230749
0.222506
0.228001
0.230749
0.208767
0.203272
0.214263
0.203272
0.208767
0.206019
0.219758
0.260974
0.266470
0.247236
0.208767
0.217010
0.200524
0.115344
0.857237
0.184037
0.195028
0.192281
0.197776
0.195028
0.208767
0.197776
0.197776
0.192281
0.173046
0.175794
0.230749
0.244488
0.247236
0.249983
0.241740
0.236245
0.230749
0.219758
0.225254
0.225254
0.217010
0.219758
0.266470
0.280209
0.269218
0.238992
0.203272
0.200524
0.142821
0.560480
0.148317
0.184037
0.170299
0.178542
0.181290
0.173046
0.184037
0.184037
0.173046
0.173046
0.200524
0.228001
0.230749
0.236245
0.222506
0.217010
0.225254
0.206019
0.211515
0.211515
0.208767
0.219758
0.274713
0.258227
0.249983
0.208767
0.195028
0.192281
0.203272
0.277461
0.189533
0.181290
0.170299
0.181290
0.184037
0.181290
0.175794
0.173046
0.162055
0.192281
0.228001
0.208767
0.208767
0.206019
0.181290
0.189533
0.189533
0.184037
0.189533
0.217010
0.241740
0.230749
0.203272
0.167551
0.173046
0.134578
0.439579
0.096109
0.162055
0.145569
0.145569
0.156560
0.151064
0.153812
0.153812
0.118091
0.123587
0.189533
0.200524
0.208767
0.211515
0.195028
0.203272
0.200524
0.189533
0.206019
0.214263
0.203272
0.258227
0.258227
0.258227
0.206019
0.203272
0.189533
0.140073
0.469804
0.175794
0.173046
0.184037
0.170299
0.184037
0.189533
0.175794
0.170299
0.175794
0.214263
0.241740
0.247236
0.230749
0.230749
0.225254
0.211515
0.214263
0.217010
0.217010
0.222506
0.263722
0.269218
0.274713
0.228001
0.206019
0.200524
0.148317
0.631921
0.156560
0.189533
0.173046
0.189533
0.186785
0.181290
0.192281
0.195028
0.178542
0.184037
0.217010
0.236245
0.249983
0.244488
0.230749
0.233497
0.219758
0.214263
0.219758
0.225254
0.214263
0.225254
0.263722
0.263722
0.288452
0.219758
0.192281
0.206019
0.123587
0.763813
0.159308
0.181290
0.162055
0.173046
0.170299
0.162055
0.167551
0.159308
0.151064
0.151064
0.162055
0.189533
0.208767
0.214263
0.197776
0.192281
0.195028
0.175794
0.181290
0.192281
0.184037
0.206019
0.238992
0.225254
0.238992
0.178542
0.164803
0.159308
0.043902
0.827012
0.134578
0.142821
0.137326
0.148317
0.145569
0.137326
0.145569
0.137326
0.109848
0.115344
0.134578
0.162055
0.206019
0.203272
0.197776
0.195028
0.192281
0.192281
0.192281
0.189533
0.192281
0.197776
0.249983
0.238992
0.260974
0.197776
0.175794
0.184037
0.074127
0.890210
0.170299
0.162055
0.159308
0.167551
0.167551
0.162055
0.173046
0.170299
0.162055
0.162055
0.186785
0.217010
0.236245
0.228001
0.214263
0.214263
0.206019
0.200524
0.197776
0.197776
0.197776
0.200524
0.238992
0.260974
0.244488
0.211515
0.192281
0.186785
0.178542
0.271965
0.269218
0.170299
0.167551
0.170299
0.173046
0.164803
0.170299
0.175794
0.167551
0.162055
0.175794
0.206019
0.225254
0.225254
0.214263
0.208767
0.206019
0.192281
0.203272
0.200524
0.197776
0.206019
0.236245
0.252731
0.263722
0.189533
0.181290
0.175794
0.063136
0.601696
0.159308
0.162055
0.145569
0.156560
0.156560
0.151064
0.164803
0.162055
0.140073
0.162055
0.200524
0.206019
0.203272
0.203272
0.192281
0.189533
0.186785
0.192281
0.192281
0.175794
0.219758
0.249983
0.249983
0.178542
0.170299
0.186785
0.109848
0.423092
0.153812
0.142821
0.159308
0.153812
0.153812
0.153812
0.162055
0.137326
0.137326
0.162055
0.211515
0.233497
0.233497
0.219758
0.228001
0.222506
0.211515
0.222506
0.219758
0.222506
0.247236
0.280209
0.282956
0.274713
0.219758
0.208767
0.162055
0.623678
0.145569
0.208767
0.206019
0.197776
0.208767
0.206019
0.195028
0.214263
0.200524
0.189533
0.228001
0.252731
0.252731
0.263722
0.252731
0.238992
0.238992
0.228001
0.219758
0.225254
0.225254
0.225254
0.271965
0.274713
0.280209
0.214263
0.211515
0.195028
0.093362
0.675885
0.173046
0.184037
0.181290
0.170299
0.181290
0.189533
0.178542
0.181290
0.184037
0.173046
0.208767
0.233497
0.219758
0.236245
0.222506
0.203272
0.217010
0.197776
0.184037
0.197776
0.192281
0.214263
0.241740
0.233497
0.238992
0.178542
0.170299
0.159308
0.085118
0.739084
0.112596
0.142821
0.137326
0.137326
0.137326
0.137326
0.131830
0.140073
0.120839
0.104353
0.129082
0.173046
0.181290
0.178542
0.186785
0.167551
0.170299
0.159308
0.151064
0.153812
0.156560
0.156560
0.178542
0.203272
0.197776
0.206019
0.156560
0.137326
0.137326
0.046650
0.697867
0.109848
0.134578
0.140073
0.148317
0.140073
0.145569
0.162055
0.145569
0.126335
0.123587
0.170299
0.200524
0.211515
0.214263
0.203272
0.203272
0.200524
0.195028
0.195028
0.197776
0.189533
0.206019
0.238992
0.252731
0.271965
0.195028
0.184037
0.186785
0.041154
0.813273
0.156560
0.162055
0.162055
0.173046
0.170299
0.173046
0.178542
0.178542
0.173046
0.175794
0.203272
0.230749
0.233497
0.228001
0.222506
0.219758
0.214263
0.208767
0.217010
0.222506
0.236245
0.255479
0.271965
0.288452
0.219758
0.208767
0.200524
0.260974
0.238992
0.184037
0.189533
0.186785
0.189533
0.192281
0.195028
0.184037
0.192281
0.184037
0.175794
0.219758
0.228001
0.219758
0.219758
0.200524
0.197776
0.195028
0.189533
0.186785
0.192281
0.228001
0.236245
0.236245
0.203272
0.162055
0.159308
0.118091
0.450570
0.096109
0.131830
0.134578
0.145569
0.134578
0.131830
0.134578
0.134578
0.123587
0.112596
0.115344
0.156560
0.192281
0.181290
0.175794
0.167551
0.167551
0.162055
0.167551
0.167551
0.164803
0.211515
0.225254
0.225254
0.167551
0.167551
0.153812
0.109848
0.395615
0.142821
0.148317
0.153812
0.140073
0.156560
0.156560
0.153812
0.145569
0.129082
0.145569
0.208767
0.211515
0.211515
0.233497
0.274713
0.249983
0.203272
0.173046
0.170299
0.170299
0.236245
0.233497
0.167551
0.145569
0.148317
0.164803
0.159308
0.153812
0.167551
0.148317
0.142821
0.178542
0.197776
0.203272
0.206019
0.197776
0.186785
0.184037
0.178542
0.184037
0.192281
0.181290
0.192281
0.200524
0.192281
0.192281
0.206019
0.195028
0.225254
0.260974
0.225254
0.195028
0.192281
0.175794
0.112596
0.648408
0.126335
0.153812
0.173046
0.145569
0.153812
0.151064
0.140073
0.156560
0.156560
0.134578
0.134578
0.173046
0.184037
0.197776
0.197776
0.186785
0.175794
0.173046
0.162055
0.153812
0.162055
0.151064
0.186785
0.211515
0.184037
0.142821
0.142821
0.126335
0.079623
0.609939
0.074127
0.109848
0.107100
0.104353
0.104353
0.109848
0.109848
0.118091
0.093362
0.074127
0.096109
0.148317
0.162055
0.156560
0.164803
0.156560
0.145569
0.153812
0.148317
0.145569
0.159308
0.162055
0.192281
0.228001
0.214263
0.175794
0.167551
0.159308
0.096109
0.456065
0.192281
0.148317
0.151064
0.148317
0.145569
0.153812
0.153812
0.153812
0.153812
0.134578
0.134578
0.200524
0.208767
0.219758
0.219758
0.208767
0.197776
0.206019
0.200524
0.197776
0.206019
0.195028
0.238992
0.269218
0.247236
0.228001
0.200524
0.186785
0.134578
0.494534
0.101605
0.170299
0.175794
0.167551
0.178542
0.175794
0.167551
0.178542
0.173046
0.167551
0.206019
0.236245
0.236245
0.228001
0.233497
0.222506
0.214263
0.214263
0.214263
0.208767
0.233497
0.269218
0.266470
0.233497
0.206019
0.195028
0.189533
0.274713
0.137326
0.184037
0.167551
0.170299
0.184037
0.151064
0.170299
0.167551
0.148317
0.156560
0.170299
0.197776
0.206019
0.195028
0.184037
0.175794
0.178542
0.167551
0.175794
0.184037
0.200524
0.225254
0.241740
0.159308
0.151064
0.153812
0.203272
0.175794
0.145569
0.131830
0.137326
0.123587
0.134578
0.131830
0.126335
0.129082
0.104353
0.115344
0.164803
0.192281
0.200524
0.184037
0.178542
0.189533
0.173046
0.175794
0.186785
0.184037
0.228001
0.260974
0.230749
0.195028
0.192281
0.175794
0.129082
0.436831
0.093362
0.156560
0.162055
0.167551
0.164803
0.164803
0.170299
0.164803
0.167551
0.145569
0.159308
0.217010
0.225254
0.214263
0.222506
0.211515
0.206019
0.203272
0.192281
0.195028
0.208767
0.208767
0.260974
0.269218
0.217010
0.192281
0.186785
0.162055
0.296695
0.629174
0.153812
0.167551
0.162055
0.156560
0.167551
0.167551
0.173046
0.164803
0.164803
0.156560
0.189533
0.217010
0.214263
0.214263
0.214263
0.186785
0.192281
0.186785
0.178542
0.195028
0.189533
0.214263
0.247236
0.238992
0.178542
0.170299
0.164803
0.115344
0.401110
0.082371
0.137326
0.140073
0.137326
0.120839
0.131830
0.134578
0.123587
0.123587
0.115344
0.118091
0.159308
0.184037
0.175794
0.181290
0.170299
0.137326
0.151064
0.151064
0.140073
0.148317
0.178542
0.195028
0.192281
0.162055
0.131830
0.120839
0.087866
0.376380
0.057641
0.118091
0.115344
0.115344
0.115344
0.109848
0.118091
0.126335
0.107100
0.101605
0.107100
0.145569
0.184037
0.200524
0.181290
0.181290
0.181290
0.164803
0.173046
0.184037
0.173046
0.175794
0.222506
0.230749
0.222506
0.192281
0.167551
0.164803
0.096109
0.818769
0.148317
0.148317
0.142821
0.153812
0.159308
0.151064
0.162055
0.167551
0.151064
0.156560
0.195028
0.206019
0.217010
0.219758
0.203272
0.200524
0.192281
0.192281
0.200524
0.195028
0.192281
0.238992
0.255479
0.233497
0.192281
0.178542
0.173046
0.049397
0.859985
0.151064
0.162055
0.162055
0.159308
0.162055
0.175794
0.167551
0.170299
0.164803
0.153812
0.200524
0.219758
0.208767
0.206019
0.206019
0.178542
0.184037
0.175794
0.175794
0.175794
0.189533
0.230749
0.219758
0.203272
0.164803
0.142821
0.115344
0.395615
0.208767
0.129082
0.115344
0.123587
0.131830
0.107100
0.118091
0.123587
0.104353
0.096109
0.142821
0.159308
0.178542
0.167551
0.148317
0.162055
0.148317
0.140073
0.151064
0.145569
0.167551
0.197776
0.192281
0.134578
0.131830
0.126335
0.032911
0.821516
0.115344
0.112596
0.118091
0.123587
0.115344
0.118091
0.118091
0.109848
0.104353
0.118091
0.164803
0.189533
0.181290
0.170299
0.173046
0.164803
0.164803
0.159308
0.159308
0.156560
0.184037
0.217010
0.203272
0.189533
0.148317
0.140073
0.137326
0.200524
0.247236
0.134578
0.123587
0.120839
0.131830
0.126335
0.123587
0.126335
0.131830
0.118091
0.123587
0.159308
0.175794
0.181290
0.175794
0.162055
0.164803
0.153812
0.140073
0.145569
0.151064
0.140073
0.178542
0.208767
0.195028
0.173046
0.137326
0.126335
0.137326
0.024668
0.785795
0.126335
0.123587
0.112596
0.123587
0.126335
0.120839
0.123587
0.129082
0.115344
0.126335
0.134578
0.151064
0.173046
0.173046
0.159308
0.159308
0.148317
0.129082
0.137326
0.123587
0.123587
0.140073
0.162055
0.178542
0.178542
0.118091
0.104353
0.109848
0.030163
0.670390
0.063136
0.090614
0.079623
0.087866
0.082371
0.074127
0.085118
0.085118
0.074127
0.071380
0.060388
0.112596
0.142821
0.126335
0.129082
0.134578
0.120839
0.101605
0.118091
0.115344
0.107100
0.115344
0.145569
0.156560
0.178542
0.115344
0.093362
0.109848
0.010929
0.763813
0.071380
0.090614
0.090614
0.101605
0.096109
0.101605
0.109848
0.104353
0.085118
0.090614
0.129082
0.156560
0.173046
0.173046
0.162055
0.170299
0.170299
0.156560
0.164803
0.164803
0.167551
0.200524
0.228001
0.217010
0.214263
0.162055
0.156560
0.104353
0.530254
0.104353
0.151064
0.148317
0.140073
0.156560
0.151064
0.151064
0.156560
0.151064
0.153812
0.173046
0.200524
0.206019
0.206019
0.195028
0.186785
0.189533
0.178542
0.181290
0.195028
0.181290
0.217010
0.249983
0.230749
0.181290
0.173046
0.170299
0.041154
0.719849
0.151064
0.145569
0.145569
0.145569
0.137326
0.148317
0.151064
0.148317
0.145569
0.140073
0.170299
0.192281
0.173046
0.167551
0.164803
0.156560
0.142821
0.153812
0.151064
0.140073
0.178542
0.195028
0.181290
0.156560
0.118091
0.115344
0.052145
0.728093
0.043902
0.096109
0.098857
0.079623
0.104353
0.085118
0.090614
0.093362
0.074127
0.060388
0.107100
0.129082
0.140073
0.142821
0.140073
0.126335
0.123587
0.131830
0.115344
0.131830
0.142821
0.173046
0.189533
0.206019
0.123587
0.129082
0.131830
0.024668
0.857237
0.101605
0.101605
0.107100
0.109848
0.107100
0.118091
0.112596
0.112596
0.107100
0.107100
0.156560
0.175794
0.173046
0.164803
0.170299
0.156560
0.148317
0.148317
0.151064
0.153812
0.156560
0.197776
0.211515
0.222506
0.153812
0.140073
0.142821
0.043902
0.851742
0.120839
0.131830
0.123587
0.140073
0.137326
0.137326
0.142821
0.148317
0.142821
0.142821
0.167551
0.186785
0.206019
0.197776
0.189533
0.195028
0.178542
0.173046
0.184037
0.175794
0.178542
0.200524
0.230749
0.225254
0.228001
0.178542
0.164803
0.148317
0.049397
0.777552
0.098857
0.123587
0.120839
0.137326
0.126335
0.131830
0.134578
0.126335
0.131830
0.115344
0.126335
0.156560
0.178542
0.170299
0.164803
0.170299
0.153812
0.140073
0.148317
0.142821
0.140073
0.156560
0.164803
0.195028
0.192281
0.140073
0.126335
0.126335
0.079623
0.359894
0.291200
0.104353
0.109848
0.112596
0.104353
0.107100
0.115344
0.115344
0.112596
0.101605
0.085118
0.123587
0.175794
0.178542
0.189533
0.181290
0.175794
0.173046
0.181290
0.178542
0.192281
0.189533
0.192281
0.238992
0.238992
0.225254
0.178542
0.184037
0.173046
0.164803
0.381876
0.153812
0.151064
0.170299
0.148317
0.153812
0.167551
0.156560
0.159308
0.156560
0.151064
0.189533
0.217010
0.214263
0.219758
0.214263
0.203272
0.195028
0.195028
0.192281
0.195028
0.206019
0.233497
0.244488
0.260974
0.186785
0.178542
0.175794
0.225254
0.571471
0.164803
0.153812
0.162055
0.167551
0.162055
0.167551
0.164803
0.159308
0.151064
0.175794
0.208767
0.206019
0.214263
0.200524
0.197776
0.189533
0.184037
0.189533
0.192281
0.184037
0.219758
0.252731
0.228001
0.170299
0.170299
0.153812
0.049397
0.777552
0.129082
0.145569
0.140073
0.134578
0.126335
0.140073
0.131830
0.123587
0.123587
0.109848
0.148317
0.181290
0.181290
0.164803
0.178542
0.164803
0.153812
0.162055
0.151064
0.151064
0.164803
0.195028
0.200524
0.175794
0.134578
0.137326
0.068632
0.642912
0.060388
0.120839
0.107100
0.118091
0.120839
0.109848
0.126335
0.129082
0.109848
0.107100
0.142821
0.181290
0.189533
0.186785
0.186785
0.181290
0.184037
0.175794
0.173046
0.175794
0.178542
0.186785
0.219758
0.241740
0.217010
0.197776
0.164803
0.167551
0.129082
0.362642
0.104353
0.151064
0.131830
0.151064
0.151064
0.142821
0.151064
0.156560
0.148317
0.140073
0.156560
0.197776
0.217010
0.214263
0.200524
0.195028
0.195028
0.184037
0.186785
0.192281
0.189533
0.189533
0.200524
0.225254
0.255479
0.258227
0.192281
0.184037
0.184037
0.090614
0.450570
0.109848
0.170299
0.164803
0.175794
0.167551
0.173046
0.178542
0.173046
0.170299
0.181290
0.184037
0.211515
0.236245
0.228001
0.222506
0.219758
0.211515
0.197776
0.203272
0.203272
0.206019
0.219758
0.228001
0.258227
0.249983
0.225254
0.206019
0.192281
0.170299
0.140073
0.579714
0.153812
0.156560
0.156560
0.153812
0.153812
0.156560
0.148317
0.156560
0.140073
0.123587
0.164803
0.200524
0.195028
0.200524
0.200524
0.173046
0.184037
0.184037
0.167551
0.184037
0.186785
0.184037
0.233497
0.228001
0.200524
0.173046
0.167551
0.140073
0.071380
0.859985
0.151064
0.148317
0.151064
0.153812
0.162055
0.164803
0.156560
0.164803
0.148317
0.137326
0.197776
0.233497
0.217010
0.225254
0.222506
0.195028
0.206019
0.203272
0.195028
0.208767
0.211515
0.206019
0.252731
0.260974
0.252731
0.208767
0.195028
0.184037
0.082371
0.879219
0.145569
0.159308
0.167551
0.153812
0.159308
0.173046
0.170299
0.170299
0.164803
0.156560
0.189533
0.228001
0.217010
0.214263
0.214263
0.200524
0.197776
0.200524
0.189533
0.189533
0.200524
0.222506
0.252731
0.244488
0.181290
0.164803
0.173046
0.010929
0.502777
0.093362
0.137326
0.140073
0.142821
0.129082
0.142821
0.148317
0.134578
0.129082
0.123587
0.151064
0.178542
0.186785
0.175794
0.162055
0.170299
0.151064
0.148317
0.164803
0.142821
0.181290
0.203272
0.184037
0.153812
0.129082
0.134578
0.041154
0.824264
0.082371
0.107100
0.109848
0.107100
0.109848
0.123587
0.123587
0.118091
0.112596
0.096109
0.151064
0.189533
0.186785
0.186785
0.192281
0.175794
0.178542
0.181290
0.170299
0.186785
0.186785
0.217010
0.252731
0.230749
0.189533
0.178542
0.167551
0.057641
0.859985
0.151064
0.151064
0.159308
0.167551
0.159308
0.164803
0.167551
0.162055
0.170299
0.162055
0.159308
0.211515
0.225254
0.214263
0.219758
0.211515
0.203272
0.197776
0.200524
0.192281
0.206019
0.219758
0.241740
0.252731
0.274713
0.197776
0.195028
0.197776
0.109848
0.761066
0.159308
0.175794
0.181290
0.186785
0.186785
0.189533
0.200524
0.181290
0.189533
0.192281
0.175794
0.225254
0.236245
0.230749
0.228001
0.230749
0.203272
0.214263
0.208767
0.189533
0.203272
0.208767
0.217010
0.244488
0.241740
0.247236
0.189533
0.173046
0.173046
0.087866
0.684129
0.140073
0.151064
0.151064
0.140073
0.153812
0.156560
0.137326
0.159308
0.148317
0.123587
0.140073
0.184037
0.192281
0.208767
0.200524
0.184037
0.189533
0.186785
0.178542
0.181290
0.184037
0.181290
0.222506
0.241740
0.211515
0.184037
0.173046
0.156560
0.074127
0.887463
0.131830
0.153812
0.162055
0.156560
0.156560
0.162055
0.164803
0.167551
0.156560
0.140073
0.181290
0.225254
0.233497
0.233497
0.238992
0.222506
0.217010
0.219758
0.219758
0.217010
0.219758
0.219758
0.269218
0.280209
0.293947
0.222506
0.208767
0.197776
0.115344
1.000120
0.173046
0.184037
0.184037
0.178542
0.184037
0.175794
0.175794
0.175794
0.175794
0.175794
0.230749
0.233497
0.217010
0.225254
0.211515
0.203272
0.200524
0.203272
0.189533
0.206019
0.225254
0.255479
0.252731
0.236245
0.186785
0.186785
0.145569
0.343407
0.107100
0.167551
0.148317
0.156560
0.153812
0.134578
0.151064
0.153812
0.140073
0.142821
0.167551
0.184037
0.203272
0.186785
0.178542
0.178542
0.175794
0.148317
0.159308
0.159308
0.156560
0.200524
0.203272
0.214263
0.156560
0.145569
0.129082
0.068632
0.662147
0.071380
0.123587
0.118091
0.112596
0.118091
0.112596
0.112596
0.118091
0.096109
0.082371
0.148317
0.175794
0.178542
0.186785
0.175794
0.164803
0.164803
0.173046
0.170299
0.173046
0.184037
0.217010
0.233497
0.258227
0.162055
0.173046
0.170299
0.082371
0.824264
0.142821
0.145569
0.153812
0.153812
0.148317
0.156560
0.164803
0.151064
0.162055
0.148317
0.170299
0.225254
0.219758
0.211515
0.211515
0.203272
0.189533
0.197776
0.197776
0.186785
0.197776
0.230749
0.252731
0.241740
0.200524
0.170299
0.181290
0.104353
0.717102
0.142821
0.153812
0.145569
0.162055
0.159308
0.156560
0.164803
0.162055
0.153812
0.151064
0.156560
0.186785
0.214263
0.195028
0.175794
0.178542
0.181290
0.167551
0.170299
0.164803
0.162055
0.197776
0.211515
0.203272
0.217010
0.148317
0.148317
0.151064
0.035659
0.802282
0.096109
0.126335
0.120839
0.134578
0.129082
0.129082
0.131830
0.140073
0.126335
0.118091
0.098857
0.153812
0.189533
0.189533
0.184037
0.189533
0.184037
0.173046
0.170299
0.178542
0.167551
0.184037
0.211515
0.233497
0.230749
0.184037
0.167551
0.175794
0.101605
0.384624
0.123587
0.156560
0.153812
0.162055
0.162055
0.156560
0.162055
0.167551
0.162055
0.156560
0.156560
0.189533
0.233497
0.228001
0.238992
0.228001
0.208767
0.200524
0.206019
0.200524
0.197776
0.211515
0.238992
0.269218
0.252731
0.214263
0.195028
0.184037
0.129082
0.373633
0.370885
0.175794
0.164803
0.167551
0.170299
0.170299
0.181290
0.170299
0.170299
0.173046
0.186785
0.217010
0.230749
0.222506
0.217010
0.222506
0.208767
0.206019
0.206019
0.200524
0.203272
0.238992
0.266470
0.247236
0.236245
0.197776
0.192281
0.126335
0.772057
0.156560
0.173046
0.159308
0.164803
0.164803
0.170299
0.170299
0.173046
0.153812
0.142821
0.184037
0.219758
0.214263
0.222506
0.211515
0.195028
0.200524
0.192281
0.195028
0.203272
0.200524
0.236245
0.247236
0.219758
0.186785
0.189533
0.148317
0.447822
0.123587
0.170299
0.170299
0.175794
0.178542
0.173046
0.186785
0.173046
0.164803
0.162055
0.211515
0.241740
0.252731
0.244488
0.238992
0.238992
0.230749
0.230749
0.236245
0.236245
0.241740
0.277461
0.293947
0.310434
0.236245
0.230749
0.214263
0.142821
0.758318
0.203272
0.206019
0.206019
0.203272
0.208767
0.195028
0.208767
0.211515
0.208767
0.200524
0.255479
0.269218
0.269218
0.266470
0.255479
0.252731
0.249983
0.247236
0.247236
0.252731
0.252731
0.277461
0.324173
0.299443
0.288452
0.249983
0.238992
0.225254
0.271965
0.373633
0.219758
0.217010
0.214263
0.219758
0.225254
0.219758
0.222506
0.233497
0.214263
0.214263
0.249983
0.258227
0.266470
0.266470
0.247236
0.241740
0.236245
0.230749
0.230749
0.228001
0.222506
0.244488
0.291200
0.263722
0.233497
0.217010
0.203272
0.200524
0.090614
0.857237
0.175794
0.170299
0.162055
0.170299
0.170299
0.178542
0.167551
0.173046
0.148317
0.145569
0.178542
0.208767
0.228001
0.233497
0.208767
0.211515
0.214263
0.195028
0.206019
0.203272
0.206019
0.230749
0.266470
0.244488
0.208767
0.211515
0.189533
0.153812
0.384624
0.189533
0.192281
0.195028
0.184037
0.186785
0.197776
0.195028
0.192281
0.195028
0.173046
0.181290
0.222506
0.247236
0.241740
0.252731
0.247236
0.233497
0.236245
0.233497
0.222506
0.233497
0.230749
0.258227
0.299443
0.285704
0.263722
0.233497
0.217010
0.217010
0.098857
0.920436
0.208767
0.203272
0.192281
0.200524
0.211515
0.195028
0.203272
0.206019
0.197776
0.197776
0.225254
0.247236
0.249983
0.252731
0.244488
0.233497
0.230749
0.222506
0.219758
0.233497
0.225254
0.269218
0.288452
0.271965
0.208767
0.214263
0.203272
0.079623
0.788543
0.173046
0.192281
0.184037
0.186785
0.189533
0.195028
0.184037
0.189533
0.184037
0.175794
0.206019
0.222506
0.230749
0.225254
0.225254
0.217010
0.203272
0.208767
0.195028
0.197776
0.233497
0.252731
0.244488
0.214263
0.181290
0.184037
0.115344
0.796786
0.156560
0.175794
0.164803
0.173046
0.170299
0.159308
0.175794
0.178542
0.148317
0.140073
0.189533
0.228001
0.233497
0.238992
0.222506
0.214263
0.222506
0.214263
0.228001
0.236245
0.222506
0.277461
0.282956
0.271965
0.233497
0.228001
0.222506
0.280209
0.656651
0.208767
0.206019
0.211515
0.211515
0.217010
0.233497
0.211515
0.203272
0.211515
0.222506
0.263722
0.282956
0.277461
0.274713
0.277461
0.255479
0.258227
0.260974
0.252731
0.255479
0.266470
0.302191
0.307686
0.307686
0.247236
0.233497
0.241740
0.164803
0.728093
0.233497
0.219758
0.228001
0.230749
0.230749
0.233497
0.238992
0.233497
0.228001
0.244488
0.274713
0.285704
0.288452
0.271965
0.271965
0.269218
0.255479
0.247236
0.258227
0.244488
0.266470
0.310434
0.304939
0.326921
0.260974
0.238992
0.238992
0.167551
0.623678
0.162055
0.211515
0.208767
0.206019
0.206019
0.200524
0.203272
0.206019
0.195028
0.192281
0.192281
0.206019
0.249983
0.249983
0.236245
0.236245
0.230749
0.219758
0.228001
0.214263
0.206019
0.225254
0.219758
0.247236
0.260974
0.269218
0.195028
0.192281
0.195028
0.148317
0.354398
0.164803
0.173046
0.167551
0.170299
0.164803
0.175794
0.162055
0.167551
0.156560
0.137326
0.140073
0.192281
0.230749
0.222506
0.233497
0.236245
0.211515
0.219758
0.219758
0.208767
0.217010
0.225254
0.247236
0.280209
0.266470
0.230749
0.206019
0.217010
0.189533
0.238992
0.354398
0.189533
0.192281
0.192281
0.195028
0.189533
0.200524
0.189533
0.184037
0.195028
0.197776
0.236245
0.258227
0.249983
0.255479
0.249983
0.236245
0.230749
0.236245
0.233497
0.238992
0.280209
0.293947
0.280209
0.277461
0.225254
0.228001
0.186785
0.445074
0.151064
0.214263
0.195028
0.206019
0.208767
0.206019
0.211515
0.222506
0.206019
0.203272
0.230749
0.247236
0.266470
0.263722
0.247236
0.249983
0.241740
0.228001
0.230749
0.241740
0.233497
0.266470
0.302191
0.266470
0.228001
0.219758
0.200524
0.145569
0.420344
0.129082
0.200524
0.192281
0.184037
0.195028
0.195028
0.186785
0.200524
0.186785
0.170299
0.219758
0.244488
0.230749
0.241740
0.238992
0.217010
0.217010
0.219758
0.208767
0.214263
0.260974
0.263722
0.263722
0.233497
0.203272
0.200524
0.148317
0.598948
0.137326
0.192281
0.181290
0.184037
0.186785
0.181290
0.189533
0.184037
0.170299
0.164803
0.211515
0.255479
0.260974
0.269218
0.260974
0.258227
0.263722
0.255479
0.263722
0.269218
0.263722
0.277461
0.329668
0.313182
0.299443
0.263722
0.249983
0.206019
0.563227
0.505524
0.247236
0.249983
0.238992
0.252731
0.249983
0.249983
0.258227
0.247236
0.238992
0.255479
0.293947
0.299443
0.304939
0.302191
0.288452
0.280209
0.282956
0.260974
0.277461
0.280209
0.263722
0.313182
0.332416
0.302191
0.271965
0.260974
0.238992
0.181290
0.642912
0.178542
0.228001
0.228001
0.225254
0.228001
0.222506
0.225254
0.236245
0.230749
0.217010
0.225254
0.249983
0.277461
0.282956
0.280209
0.263722
0.255479
0.252731
0.244488
0.241740
0.249983
0.247236
0.274713
0.307686
0.277461
0.263722
0.222506
0.203272
0.189533
0.332416
0.478047
0.175794
0.178542
0.164803
0.175794
0.164803
0.159308
0.167551
0.151064
0.140073
0.137326
0.181290
0.197776
0.200524
0.203272
0.192281
0.189533
0.186785
0.175794
0.175794
0.173046
0.164803
0.208767
0.230749
0.197776
0.175794
0.162055
0.140073
0.164803
0.068632
0.730840
0.134578
0.131830
0.129082
0.137326
0.134578
0.126335
0.140073
0.134578
0.112596
0.120839
0.131830
0.189533
0.211515
0.211515
0.200524
0.203272
0.200524
0.192281
0.192281
0.195028
0.192281
0.203272
0.211515
0.236245
0.249983
0.252731
0.173046
0.184037
0.178542
0.208767
0.354398
0.167551
0.156560
0.162055
0.164803
0.156560
0.173046
0.167551
0.162055
0.164803
0.175794
0.206019
0.233497
0.230749
0.219758
0.214263
0.211515
0.195028
0.206019
0.206019
0.197776
0.238992
0.269218
0.252731
0.244488
0.197776
0.189533
0.159308
0.527507
0.129082
0.181290
0.178542
0.178542
0.195028
0.189533
0.184037
0.192281
0.178542
0.181290
0.230749
0.241740
0.236245
0.238992
0.233497
0.219758
0.217010
0.211515
0.211515
0.217010
0.249983
0.249983
0.274713
0.206019
0.184037
0.206019
0.126335
0.810525
0.170299
0.170299
0.173046
0.181290
0.164803
0.178542
0.186785
0.173046
0.148317
0.173046
0.222506
0.225254
0.228001
0.233497
0.214263
0.222506
0.208767
0.214263
0.217010
0.217010
0.244488
0.271965
0.266470
0.203272
0.203272
0.195028
0.115344
0.848994
0.184037
0.184037
0.186785
0.197776
0.189533
0.206019
0.200524
0.197776
0.186785
0.167551
0.214263
0.260974
0.252731
0.252731
0.260974
0.244488
0.241740
0.244488
0.249983
0.241740
0.255479
0.285704
0.304939
0.291200
0.260974
0.236245
0.238992
0.159308
0.351651
0.629174
0.217010
0.197776
0.214263
0.211515
0.208767
0.219758
0.208767
0.206019
0.211515
0.206019
0.249983
0.266470
0.271965
0.258227
0.260974
0.252731
0.228001
0.241740
0.244488
0.228001
0.249983
0.271965
0.291200
0.291200
0.258227
0.228001
0.230749
0.225254
0.112596
0.854490
0.208767
0.208767
0.208767
0.211515
0.208767
0.217010
0.203272
0.206019
0.203272
0.200524
0.195028
0.233497
0.247236
0.238992
0.238992
0.233497
0.208767
0.219758
0.217010
0.206019
0.211515
0.230749
0.249983
0.258227
0.241740
0.200524
0.203272
0.186785
0.087866
0.670390
0.162055
0.167551
0.175794
0.167551
0.156560
0.170299
0.164803
0.162055
0.156560
0.134578
0.162055
0.214263
0.219758
0.217010
0.214263
0.203272
0.197776
0.195028
0.200524
0.203272
0.200524
0.233497
0.258227
0.258227
0.233497
0.197776
0.195028
0.126335
0.329668
0.137326
0.170299
0.167551
0.178542
0.175794
0.178542
0.181290
0.192281
0.167551
0.164803
0.189533
0.222506
0.241740
0.238992
0.233497
0.230749
0.222506
0.217010
0.219758
0.219758
0.222506
0.247236
0.280209
0.263722
0.260974
0.225254
0.211515
0.186785
0.288452
0.513768
0.197776
0.189533
0.184037
0.195028
0.192281
0.184037
0.200524
0.192281
0.189533
0.206019
0.236245
0.247236
0.252731
0.249983
0.233497
0.225254
0.233497
0.225254
0.222506
0.230749
0.230749
0.277461
0.282956
0.291200
0.236245
0.214263
0.195028
0.090614
0.662147
0.178542
0.192281
0.184037
0.178542
0.189533
0.175794
0.195028
0.189533
0.159308
0.184037
0.219758
0.228001
0.219758
0.230749
0.208767
0.195028
0.208767
0.200524
0.189533
0.206019
0.233497
0.247236
0.252731
0.186785
0.186785
0.178542
0.074127
0.717102
0.156560
0.159308
0.148317
0.153812
0.153812
0.151064
0.156560
0.145569
0.115344
0.164803
0.208767
0.214263
0.214263
0.206019
0.203272
0.197776
0.200524
0.200524
0.200524
0.203272
0.241740
0.263722
0.269218
0.197776
0.192281
0.192281
0.082371
0.870976
0.175794
0.159308
0.170299
0.173046
0.170299
0.184037
0.170299
0.162055
0.156560
0.164803
0.206019
0.241740
0.233497
0.228001
0.236245
0.214263
0.217010
0.222506
0.214263
0.217010
0.230749
0.260974
0.274713
0.285704
0.228001
0.211515
0.217010
0.142821
0.579714
0.228001
0.186785
0.175794
0.184037
0.186785
0.181290
0.195028
0.192281
0.184037
0.184037
0.184037
0.219758
0.244488
0.241740
0.233497
0.233497
0.214263
0.208767
0.200524
0.206019
0.208767
0.230749
0.263722
0.249983
0.252731
0.195028
0.192281
0.203272
0.115344
0.659399
0.151064
0.173046
0.175794
0.178542
0.184037
0.175794
0.181290
0.181290
0.173046
0.181290
0.217010
0.280209
0.260974
0.233497
0.195028
0.184037
0.164803
0.164803
0.173046
0.873724
0.151064
0.153812
0.145569
0.148317
0.156560
0.159308
0.159308
0.162055
0.153812
0.148317
0.164803
0.173046
0.170299
0.175794
0.167551
0.159308
0.170299
0.162055
0.164803
0.164803
0.148317
0.162055
0.167551
0.156560
0.153812
0.162055
0.156560
0.189533
0.225254
0.206019
0.184037
0.162055
0.140073
0.071380
0.843498
0.131830
0.142821
0.140073
0.131830
0.145569
0.159308
0.142821
0.137326
0.129082
0.120839
0.178542
0.222506
0.222506
0.228001
0.225254
0.211515
0.206019
0.208767
0.206019
0.206019
0.217010
0.238992
0.258227
0.266470
0.197776
0.200524
0.189533
0.134578
0.769309
0.184037
0.173046
0.175794
0.181290
0.184037
0.184037
0.203272
0.192281
0.195028
0.225254
0.238992
0.247236
0.249983
0.236245
0.236245
0.230749
0.214263
0.222506
0.225254
0.233497
0.274713
0.277461
0.249983
0.214263
0.208767
0.189533
0.217010
0.329668
0.178542
0.175794
0.189533
0.170299
0.178542
0.184037
0.184037
0.184037
0.178542
0.164803
0.222506
0.230749
0.211515
0.228001
0.217010
0.195028
0.203272
0.197776
0.192281
0.200524
0.230749
0.238992
0.236245
0.192281
0.167551
0.175794
0.104353
0.755570
0.145569
0.164803
0.145569
0.151064
0.156560
0.148317
0.151064
0.159308
0.140073
0.131830
0.181290
0.208767
0.211515
0.217010
0.200524
0.203272
0.206019
0.189533
0.206019
0.208767
0.219758
0.249983
0.258227
0.252731
0.189533
0.186785
0.170299
0.043902
0.848994
0.167551
0.159308
0.148317
0.151064
0.156560
0.156560
0.153812
0.162055
0.164803
0.162055
0.181290
0.217010
0.208767
0.208767
0.211515
0.181290
0.186785
0.181290
0.175794
0.195028
0.206019
0.236245
0.236245
0.258227
0.186785
0.178542
0.178542
0.068632
0.870976
0.123587
0.148317
0.145569
0.156560
0.145569
0.162055
0.164803
0.156560
0.164803
0.162055
0.167551
0.200524
0.203272
0.200524
0.189533
0.192281
0.167551
0.173046
0.167551
0.162055
0.167551
0.208767
0.206019
0.197776
0.175794
0.145569
0.131830
0.087866
0.428588
0.071380
0.123587
0.109848
0.115344
0.118091
0.109848
0.109848
0.120839
0.107100
0.096109
0.096109
0.137326
0.159308
0.186785
0.156560
0.156560
0.148317
0.137326
0.145569
0.148317
0.142821
0.189533
0.211515
0.214263
0.159308
0.151064
0.140073
0.065884
0.747327
0.101605
0.129082
0.137326
0.131830
0.137326
0.142821
0.137326
0.153812
0.153812
0.126335
0.140073
0.195028
0.197776
0.206019
0.211515
0.200524
0.200524
0.184037
0.181290
0.192281
0.189533
0.230749
0.258227
0.238992
0.203272
0.189533
0.186785
0.142821
0.406606
0.142821
0.162055
0.151064
0.170299
0.162055
0.170299
0.173046
0.164803
0.184037
0.175794
0.192281
0.219758
0.241740
0.225254
0.228001
0.225254
0.200524
0.219758
0.211515
0.200524
0.225254
0.266470
0.258227
0.269218
0.192281
0.192281
0.192281
0.159308
0.376380
0.173046
0.175794
0.164803
0.164803
0.164803
0.164803
0.167551
0.178542
0.148317
0.164803
0.219758
0.211515
0.208767
0.208767
0.200524
0.189533
0.186785
0.186785
0.186785
0.222506
0.236245
0.228001
0.197776
0.156560
0.162055
0.071380
0.508272
0.107100
0.140073
0.140073
0.151064
0.151064
0.137326
0.153812
0.148317
0.115344
0.156560
0.192281
0.208767
0.217010
0.206019
0.200524
0.208767
0.192281
0.186785
0.195028
0.206019
0.236245
0.263722
0.244488
0.208767
0.189533
0.189533
0.131830
0.450570
0.115344
0.159308
0.153812
0.159308
0.151064
0.159308
0.159308
0.156560
0.156560
0.159308
0.162055
0.208767
0.214263
0.206019
0.211515
0.208767
0.192281
0.192281
0.186785
0.181290
0.200524
0.208767
0.233497
0.252731
0.241740
0.186785
0.186785
0.184037
0.090614
0.816021
0.148317
0.162055
0.164803
0.159308
0.156560
0.173046
0.167551
0.164803
0.181290
0.175794
0.175794
0.214263
0.222506
0.217010
0.217010
0.206019
0.195028
0.211515
0.195028
0.186785
0.197776
0.233497
0.255479
0.252731
0.222506
0.184037
0.175794
0.181290
0.060388
0.824264
0.156560
0.145569
0.164803
0.159308
0.151064
0.156560
0.164803
0.159308
0.140073
0.151064
0.156560
0.203272
0.222506
0.203272
0.222506
0.214263
0.195028
0.200524
0.208767
0.192281
0.217010
0.244488
0.258227
0.269218
0.200524
0.189533
0.203272
0.107100
0.467056
0.145569
0.192281
0.186785
0.200524
0.203272
0.189533
0.200524
0.203272
0.181290
0.184037
0.214263
0.233497
0.263722
0.252731
0.249983
0.258227
0.238992
0.233497
0.241740
0.238992
0.238992
0.247236
0.288452
0.291200
0.315930
0.244488
0.222506
0.233497
0.153812
0.851742
0.208767
0.203272
0.197776
0.206019
0.197776
0.206019
0.208767
0.208767
0.200524
0.203272
0.236245
0.258227
0.266470
0.258227
0.241740
0.241740
0.236245
0.219758
0.238992
0.238992
0.247236
0.299443
0.282956
0.274713
0.228001
0.211515
0.162055
0.381876
0.343407
0.186785
0.175794
0.184037
0.173046
0.186785
0.186785
0.170299
0.178542
0.167551
0.162055
0.214263
0.230749
0.214263
0.222506
0.214263
0.189533
0.192281
0.195028
0.181290
0.197776
0.225254
0.236245
0.236245
0.173046
0.162055
0.173046
0.065884
0.813273
0.137326
0.151064
0.134578
0.140073
0.137326
0.137326
0.134578
0.137326
0.109848
0.112596
0.134578
0.175794
0.203272
0.192281
0.181290
0.192281
0.184037
0.175794
0.192281
0.189533
0.189533
0.228001
0.247236
0.247236
0.186785
0.181290
0.162055
0.079623
0.761066
0.151064
0.159308
0.148317
0.151064
0.156560
0.145569
0.156560
0.156560
0.145569
0.156560
0.203272
0.214263
0.217010
0.211515
0.200524
0.195028
0.197776
0.189533
0.184037
0.200524
0.195028
0.236245
0.247236
0.233497
0.186785
0.184037
0.167551
0.170299
0.502777
0.162055
0.159308
0.162055
0.164803
0.153812
0.167551
0.162055
0.148317
0.173046
0.164803
0.192281
0.225254
0.217010
0.211515
0.211515
0.200524
0.195028
0.195028
0.195028
0.195028
0.206019
0.230749
0.263722
0.244488
0.208767
0.184037
0.195028
0.181290
0.137326
0.549489
0.156560
0.153812
0.164803
0.162055
0.167551
0.175794
0.164803
0.173046
0.156560
0.145569
0.164803
0.203272
0.219758
0.206019
0.211515
0.214263
0.200524
0.200524
0.189533
0.195028
0.206019
0.203272
0.225254
0.252731
0.238992
0.200524
0.192281
0.181290
0.118091
0.318677
0.282956
0.156560
0.170299
0.162055
0.162055
0.175794
0.167551
0.162055
0.167551
0.140073
0.153812
0.222506
0.233497
0.241740
0.249983
0.236245
0.238992
0.238992
0.230749
0.233497
0.238992
0.249983
0.280209
0.313182
0.293947
0.258227
0.238992
0.236245
0.148317
0.500029
0.178542
0.208767
0.219758
0.211515
0.214263
0.219758
0.217010
0.208767
0.214263
0.211515
0.238992
0.274713
0.274713
0.269218
0.271965
0.260974
0.241740
0.249983
0.241740
0.241740
0.258227
0.299443
0.293947
0.291200
0.252731
0.228001
0.230749
0.134578
0.827012
0.214263
0.200524
0.206019
0.211515
0.206019
0.200524
0.206019
0.203272
0.189533
0.208767
0.241740
0.247236
0.249983
0.236245
0.225254
0.228001
0.219758
0.214263
0.219758
0.211515
0.238992
0.277461
0.247236
0.208767
0.192281
0.173046
0.123587
0.601696
0.148317
0.156560
0.167551
0.151064
0.151064
0.164803
0.159308
0.148317
0.148317
0.137326
0.170299
0.200524
0.197776
0.192281
0.186785
0.181290
0.167551
0.175794
0.175794
0.181290
0.222506
0.230749
0.228001
0.181290
0.159308
0.148317
0.082371
0.708858
0.137326
0.140073
0.145569
0.137326
0.145569
0.131830
0.142821
0.137326
0.120839
0.134578
0.162055
0.197776
0.208767
0.206019
0.197776
0.195028
0.189533
0.184037
0.192281
0.200524
0.206019
0.241740
0.266470
0.244488
0.203272
0.197776
0.186785
0.101605
0.821516
0.379128
0.164803
0.170299
0.167551
0.162055
0.175794
0.173046
0.164803
0.175794
0.167551
0.167551
0.211515
0.222506
0.222506
0.222506
0.217010
0.203272
0.203272
0.186785
0.192281
0.206019
0.217010
0.249983
0.263722
0.263722
0.189533
0.197776
0.186785
0.109848
0.865481
0.148317
0.167551
0.186785
0.167551
0.175794
0.178542
0.175794
0.175794
0.184037
0.162055
0.184037
0.217010
0.214263
0.217010
0.222506
0.206019
0.197776
0.200524
0.192281
0.189533
0.192281
0.217010
0.244488
0.233497
0.200524
0.167551
0.173046
0.129082
0.288452
0.184037
0.153812
0.145569
0.151064
0.145569
0.151064
0.156560
0.142821
0.142821
0.134578
0.134578
0.195028
0.214263
0.208767
0.211515
0.214263
0.208767
0.203272
0.203272
0.206019
0.197776
0.219758
0.252731
0.258227
0.274713
0.214263
0.203272
0.200524
0.126335
0.766561
0.115344
0.178542
0.173046
0.184037
0.184037
0.189533
0.195028
0.186785
0.189533
0.175794
0.178542
0.228001
0.260974
0.252731
0.252731
0.252731
0.236245
0.241740
0.236245
0.225254
0.236245
0.236245
0.266470
0.299443
0.285704
0.269218
0.222506
0.225254
0.170299
0.511020
0.134578
0.192281
0.192281
0.195028
0.186785
0.189533
0.197776
0.189533
0.189533
0.192281
0.211515
0.247236
0.252731
0.244488
0.236245
0.236245
0.228001
0.211515
0.222506
0.208767
0.233497
0.291200
0.249983
0.222506
0.214263
0.181290
0.178542
0.222506
0.208767
0.162055
0.159308
0.156560
0.151064
0.151064
0.153812
0.142821
0.142821
0.126335
0.159308
0.206019
0.197776
0.206019
0.189533
0.173046
0.175794
0.167551
0.178542
0.175794
0.211515
0.222506
0.222506
0.173046
0.156560
0.153812
0.057641
0.862733
0.131830
0.142821
0.123587
0.134578
0.140073
0.137326
0.137326
0.131830
0.107100
0.123587
0.178542
0.200524
0.208767
0.206019
0.192281
0.192281
0.184037
0.184037
0.181290
0.197776
0.233497
0.249983
0.252731
0.214263
0.181290
0.184037
0.170299
0.274713
0.258227
0.167551
0.164803
0.164803
0.156560
0.162055
0.175794
0.175794
0.167551
0.164803
0.181290
0.228001
0.244488
0.230749
0.225254
0.219758
0.203272
0.200524
0.208767
0.189533
0.208767
0.252731
0.266470
0.249983
0.217010
0.195028
0.197776
0.126335
0.755570
0.104353
0.175794
0.162055
0.170299
0.186785
0.178542
0.178542
0.184037
0.178542
0.175794
0.184037
0.211515
0.230749
0.236245
0.230749
0.214263
0.211515
0.197776
0.200524
0.203272
0.189533
0.200524
0.238992
0.260974
0.236245
0.208767
0.181290
0.170299
0.170299
0.197776
0.414849
0.148317
0.137326
0.151064
0.156560
0.142821
0.145569
0.156560
0.140073
0.126335
0.129082
0.134578
0.184037
0.219758
0.214263
0.195028
0.214263
0.192281
0.184037
0.206019
0.186785
0.197776
0.238992
0.244488
0.252731
0.203272
0.186785
0.192281
0.162055
0.384624
0.162055
0.192281
0.175794
0.181290
0.197776
0.181290
0.181290
0.192281
0.170299
0.156560
0.173046
0.217010
0.247236
0.255479
0.233497
0.244488
0.236245
0.222506
0.225254
0.225254
0.217010
0.219758
0.266470
0.280209
0.285704
0.225254
0.208767
0.214263
0.162055
0.541245
0.140073
0.186785
0.181290
0.184037
0.189533
0.170299
0.181290
0.178542
0.173046
0.175794
0.217010
0.236245
0.241740
0.238992
0.228001
0.219758
0.217010
0.219758
0.211515
0.217010
0.214263
0.249983
0.277461
0.252731
0.214263
0.208767
0.192281
0.120839
0.527507
0.123587
0.175794
0.170299
0.170299
0.173046
0.178542
0.170299
0.175794
0.164803
0.156560
0.200524
0.217010
0.219758
0.217010
0.206019
0.189533
0.192281
0.184037
0.178542
0.189533
0.208767
0.236245
0.238992
0.247236
0.162055
0.173046
0.134578
0.412101
0.101605
0.151064
0.137326
0.156560
0.142821
0.134578
0.145569
0.142821
0.109848
0.112596
0.173046
0.189533
0.203272
0.200524
0.186785
0.175794
0.184037
0.173046
0.184037
0.195028
0.211515
0.252731
0.249983
0.222506
0.189533
0.184037
0.148317
0.428588
0.112596
0.164803
0.170299
0.175794
0.164803
0.178542
0.175794
0.178542
0.173046
0.173046
0.203272
0.241740
0.247236
0.241740
0.238992
0.241740
0.225254
0.230749
0.230749
0.233497
0.249983
0.282956
0.296695
0.293947
0.236245
0.228001
0.228001
0.120839
0.925931
0.206019
0.211515
0.189533
0.200524
0.200524
0.189533
0.206019
0.214263
0.203272
0.206019
0.233497
0.255479
0.277461
0.269218
0.255479
0.252731
0.241740
0.244488
0.241740
0.241740
0.247236
0.291200
0.310434
0.288452
0.244488
0.236245
0.217010
0.225254
0.162055
0.725345
0.195028
0.211515
0.186785
0.195028
0.211515
0.189533
0.197776
0.203272
0.173046
0.189533
0.222506
0.233497
0.255479
0.241740
0.236245
0.236245
0.225254
0.219758
0.225254
0.214263
0.233497
0.269218
0.271965
0.269218
0.206019
0.206019
0.195028
0.153812
0.340659
0.197776
0.184037
0.178542
0.170299
0.181290
0.170299
0.170299
0.178542
0.170299
0.153812
0.156560
0.197776
0.233497
0.244488
0.247236
0.236245
0.238992
0.233497
0.228001
0.230749
0.233497
0.225254
0.241740
0.282956
0.263722
0.271965
0.228001
0.197776
0.225254
0.112596
0.914940
0.195028
0.195028
0.178542
0.192281
0.200524
0.192281
0.206019
0.206019
0.186785
0.195028
0.214263
0.249983
0.260974
0.260974
0.247236
0.244488
0.233497
0.228001
0.228001
0.228001
0.219758
0.277461
0.307686
0.263722
0.244488
0.222506
0.211515
0.096109
0.865481
0.197776
0.195028
0.197776
0.189533
0.200524
0.200524
0.197776
0.206019
0.200524
0.189533
0.230749
0.255479
0.247236
0.252731
0.244488
0.219758
0.228001
0.217010
0.211515
0.228001
0.249983
0.266470
0.266470
0.233497
0.203272
0.200524
0.112596
0.805030
0.175794
0.175794
0.164803
0.170299
0.167551
0.159308
0.175794
0.167551
0.145569
0.164803
0.203272
0.230749
0.230749
0.219758
0.197776
0.208767
0.200524
0.189533
0.208767
0.208767
0.241740
0.260974
0.260974
0.189533
0.208767
0.184037
0.074127
0.695120
0.120839
0.162055
0.170299
0.153812
0.159308
0.151064
0.178542
0.148317
0.148317
0.134578
0.178542
0.241740
0.255479
0.236245
0.247236
0.219758
0.206019
0.241740
0.206019
0.225254
0.255479
0.280209
0.274713
0.302191
0.236245
0.211515
0.225254
0.126335
0.958904
0.208767
0.195028
0.195028
0.203272
0.200524
0.178542
0.195028
0.162055
0.142821
0.178542
0.247236
0.266470
0.269218
0.274713
0.255479
0.260974
0.252731
0.244488
0.255479
0.258227
0.249983
0.299443
0.313182
0.307686
0.263722
0.241740
0.233497
0.156560
0.953409
0.134578
0.219758
0.208767
0.211515
0.217010
0.219758
0.222506
0.228001
0.222506
0.208767
0.236245
0.285704
0.285704
0.291200
0.274713
0.263722
0.266470
0.255479
0.252731
0.255479
0.263722
0.302191
0.302191
0.291200
0.241740
0.233497
0.230749
0.142821
0.805030
0.217010
0.206019
0.217010
0.217010
0.206019
0.222506
0.219758
0.206019
0.217010
0.203272
0.230749
0.260974
0.258227
0.249983
0.244488
0.241740
0.219758
0.238992
0.217010
0.230749
0.258227
0.274713
0.255479
0.255479
0.208767
0.197776
0.181290
0.266470
0.348903
0.178542
0.189533
0.175794
0.178542
0.189533
0.167551
0.186785
0.178542
0.181290
0.173046
0.200524
0.228001
0.228001
0.219758
0.206019
0.214263
0.197776
0.189533
0.195028
0.230749
0.266470
0.260974
0.277461
0.189533
0.186785
0.178542
0.118091
0.829760
0.159308
0.167551
0.170299
0.167551
0.173046
0.178542
0.175794
0.170299
0.178542
0.173046
0.184037
0.233497
0.222506
0.222506
0.217010
0.208767
0.203272
0.200524
0.197776
0.206019
0.249983
0.255479
0.269218
0.200524
0.189533
0.189533
0.085118
0.838003
0.175794
0.178542
0.197776
0.181290
0.186785
0.197776
0.192281
0.195028
0.192281
0.197776
0.241740
0.258227
0.252731
0.249983
0.230749
0.217010
0.225254
0.219758
0.214263
0.269218
0.280209
0.288452
0.214263
0.214263
0.200524
0.109848
0.497281
0.175794
0.189533
0.184037
0.175794
0.181290
0.178542
0.170299
0.175794
0.170299
0.184037
0.238992
0.249983
0.233497
0.228001
0.228001
0.222506
0.222506
0.225254
0.230749
0.293947
0.277461
0.249983
0.222506
0.211515
0.181290
0.332416
0.140073
0.195028
0.200524
0.192281
0.197776
0.208767
0.211515
0.208767
0.211515
0.208767
0.249983
0.269218
0.266470
0.258227
0.249983
0.247236
0.228001
0.230749
0.241740
0.271965
0.302191
0.291200
0.247236
0.225254
0.225254
0.175794
0.475299
0.134578
0.192281
0.200524
0.206019
0.200524
0.214263
0.211515
0.211515
0.208767
0.203272
0.225254
0.266470
0.269218
0.260974
0.260974
0.244488
0.238992
0.236245
0.228001
0.233497
0.269218
0.293947
0.285704
0.263722
0.225254
0.214263
0.217010
0.104353
0.912192
0.200524
0.197776
0.200524
0.214263
0.200524
0.203272
0.211515
0.208767
0.200524
0.211515
0.228001
0.241740
0.266470
0.263722
0.249983
0.260974
0.241740
0.228001
0.241740
0.233497
0.269218
0.307686
0.285704
0.236245
0.230749
0.208767
0.153812
0.434083
0.137326
0.197776
0.195028
0.186785
0.184037
0.195028
0.189533
0.192281
0.192281
0.186785
0.189533
0.230749
0.241740
0.238992
0.244488
0.244488
0.222506
0.230749
0.219758
0.222506
0.228001
0.252731
0.260974
0.260974
0.200524
0.192281
0.162055
0.192281
0.851742
0.164803
0.167551
0.159308
0.175794
0.162055
0.156560
0.173046
0.167551
0.156560
0.164803
0.197776
0.203272
0.211515
0.200524
0.186785
0.195028
0.178542
0.164803
0.184037
0.195028
0.225254
0.228001
0.225254
0.156560
0.164803
0.109848
0.442326
0.065884
0.145569
0.131830
0.126335
0.137326
0.120839
0.140073
0.129082
0.123587
0.109848
0.126335
0.167551
0.195028
0.189533
0.192281
0.192281
0.186785
0.178542
0.189533
0.195028
0.197776
0.247236
0.252731
0.225254
0.195028
0.186785
0.120839
0.370885
0.096109
0.173046
0.178542
0.173046
0.178542
0.175794
0.181290
0.184037
0.195028
0.189533
0.219758
0.247236
0.241740
0.252731
0.244488
0.233497
0.225254
0.230749
0.228001
0.244488
0.280209
0.299443
0.307686
0.228001
0.228001
0.217010
0.217010
0.249983
0.206019
0.219758
0.214263
0.208767
0.219758
0.208767
0.225254
0.217010
0.208767
0.222506
0.263722
0.269218
0.269218
0.266470
0.252731
0.247236
0.244488
0.236245
0.247236
0.282956
0.313182
0.304939
0.255479
0.222506
0.219758
0.189533
0.395615
0.123587
0.211515
0.186785
0.203272
0.195028
0.192281
0.192281
0.206019
0.192281
0.175794
0.222506
0.233497
0.236245
0.236245
0.217010
0.217010
0.214263
0.203272
0.203272
0.217010
0.236245
0.266470
0.285704
0.192281
0.186785
0.175794
0.109848
0.565975
0.090614
0.156560
0.153812
0.162055
0.156560
0.162055
0.175794
0.178542
0.156560
0.145569
0.159308
0.214263
0.230749
0.211515
0.211515
0.217010
0.195028
0.195028
0.203272
0.189533
0.217010
0.258227
0.244488
0.252731
0.186785
0.170299
0.164803
0.131830
0.486290
0.140073
0.159308
0.145569
0.151064
0.162055
0.148317
0.153812
0.167551
0.145569
0.148317
0.181290
0.189533
0.200524
0.206019
0.189533
0.184037
0.186785
0.167551
0.170299
0.178542
0.173046
0.197776
0.244488
0.233497
0.206019
0.170299
0.145569
0.142821
0.063136
0.692372
0.082371
0.134578
0.123587
0.126335
0.134578
0.126335
0.137326
0.142821
0.123587
0.126335
0.120839
0.140073
0.178542
0.175794
0.164803
0.167551
0.164803
0.148317
0.151064
0.151064
0.148317
0.156560
0.184037
0.217010
0.203272
0.153812
0.126335
0.118091
0.063136
0.156560
0.167551
0.104353
0.093362
0.093362
0.107100
0.090614
0.098857
0.107100
0.093362
0.085118
0.087866
0.109848
0.153812
0.159308
0.156560
0.148317
0.140073
0.140073
0.142821
0.140073
0.142821
0.140073
0.189533
0.197776
0.208767
0.167551
0.145569
0.126335
0.038406
0.785795
0.118091
0.129082
0.126335
0.140073
0.148317
0.145569
0.159308
0.159308
0.129082
0.134578
0.181290
0.197776
0.211515
0.208767
0.189533
0.195028
0.184037
0.184037
0.189533
0.189533
0.217010
0.258227
0.258227
0.184037
0.170299
0.178542
0.032911
0.692372
0.162055
0.153812
0.156560
0.175794
0.164803
0.175794
0.186785
0.175794
0.175794
0.186785
0.219758
0.241740
0.241740
0.228001
0.228001
0.219758
0.219758
0.214263
0.219758
0.206019
0.222506
0.269218
0.277461
0.302191
0.217010
0.195028
0.195028
0.118091
0.395615
0.181290
0.175794
0.170299
0.173046
0.178542
0.178542
0.178542
0.178542
0.159308
0.173046
0.222506
0.206019
0.222506
0.217010
0.195028
0.197776
0.195028
0.186785
0.181290
0.203272
0.192281
0.214263
0.249983
0.247236
0.217010
0.186785
0.170299
0.170299
0.225254
0.249983
0.153812
0.159308
0.145569
0.153812
0.170299
0.164803
0.162055
0.170299
0.126335
0.142821
0.203272
0.214263
0.222506
0.233497
0.211515
0.214263
0.206019
0.200524
0.200524
0.217010
0.203272
0.225254
0.274713
0.271965
0.241740
0.211515
0.189533
0.178542
0.233497
0.324173
0.162055
0.173046
0.167551
0.178542
0.186785
0.178542
0.186785
0.197776
0.186785
0.181290
0.217010
0.233497
0.238992
0.238992
0.222506
0.225254
0.230749
0.208767
0.217010
0.233497
0.214263
0.214263
0.241740
0.263722
0.277461
0.247236
0.197776
0.186785
0.181290
0.068632
0.763813
0.153812
0.162055
0.170299
0.170299
0.159308
0.175794
0.178542
0.170299
0.173046
0.164803
0.186785
0.225254
0.228001
0.208767
0.214263
0.206019
0.192281
0.195028
0.189533
0.189533
0.184037
0.184037
0.208767
0.238992
0.247236
0.206019
0.167551
0.156560
0.123587
0.118091
0.777552
0.112596
0.140073
0.140073
0.123587
0.129082
0.142821
0.142821
0.137326
0.126335
0.104353
0.162055
0.195028
0.189533
0.186785
0.195028
0.173046
0.175794
0.189533
0.164803
0.173046
0.173046
0.159308
0.200524
0.238992
0.230749
0.208767
0.170299
0.156560
0.120839
0.387371
0.153812
0.140073
0.151064
0.142821
0.156560
0.156560
0.153812
0.167551
0.159308
0.151064
0.153812
0.203272
0.222506
0.222506
0.217010
0.217010
0.217010
0.211515
0.200524
0.211515
0.222506
0.247236
0.282956
0.277461
0.206019
0.203272
0.203272
0.076875
0.832507
0.181290
0.178542
0.181290
0.197776
0.192281
0.195028
0.208767
0.197776
0.195028
0.208767
0.238992
0.252731
0.260974
0.241740
0.249983
0.238992
0.225254
0.230749
0.233497
0.233497
0.269218
0.304939
0.285704
0.244488
0.217010
0.203272
0.090614
0.865481
0.162055
0.200524
0.189533
0.184037
0.200524
0.195028
0.192281
0.203272
0.192281
0.175794
0.233497
0.249983
0.241740
0.236245
0.222506
0.222506
0.219758
0.219758
0.211515
0.214263
0.225254
0.241740
0.271965
0.277461
0.192281
0.197776
0.186785
0.076875
0.794039
0.148317
0.164803
0.175794
0.175794
0.170299
0.178542
0.178542
0.184037
0.164803
0.148317
0.197776
0.241740
0.258227
0.241740
0.258227
0.244488
0.236245
0.236245
0.236245
0.236245
0.255479
0.288452
0.288452
0.285704
0.236245
0.214263
0.219758
0.126335
0.838003
0.173046
0.189533
0.178542
0.197776
0.195028
0.192281
0.197776
0.203272
0.192281
0.195028
0.206019
0.230749
0.255479
0.247236
0.233497
0.241740
0.233497
0.214263
0.225254
0.214263
0.214263
0.247236
0.263722
0.271965
0.258227
0.206019
0.197776
0.197776
0.068632
0.796786
0.159308
0.170299
0.162055
0.175794
0.175794
0.159308
0.175794
0.189533
0.167551
0.178542
0.178542
0.203272
0.228001
0.222506
0.206019
0.219758
0.195028
0.192281
0.197776
0.181290
0.170299
0.192281
0.195028
0.222506
0.241740
0.244488
0.173046
0.167551
0.162055
0.043902
0.813273
0.129082
0.126335
0.137326
0.123587
0.123587
0.131830
0.131830
0.140073
0.129082
0.101605
0.115344
0.170299
0.189533
0.186785
0.186785
0.189533
0.178542
0.184037
0.186785
0.173046
0.189533
0.192281
0.219758
0.255479
0.255479
0.178542
0.173046
0.181290
0.120839
0.401110
0.076875
0.153812
0.162055
0.167551
0.170299
0.175794
0.175794
0.167551
0.173046
0.167551
0.192281
0.241740
0.236245
0.233497
0.238992
0.225254
0.225254
0.233497
0.219758
0.241740
0.285704
0.288452
0.291200
0.211515
0.211515
0.197776
0.203272
0.285704
0.189533
0.192281
0.186785
0.195028
0.197776
0.203272
0.195028
0.197776
0.189533
0.195028
0.238992
0.238992
0.241740
0.236245
0.217010
0.208767
0.203272
0.195028
0.197776
0.217010
0.241740
0.233497
0.260974
0.186785
0.167551
0.178542
0.041154
0.763813
0.123587
0.153812
0.151064
0.153812
0.151064
0.159308
0.164803
0.142821
0.140073
0.126335
0.167551
0.206019
0.206019
0.195028
0.181290
0.184037
0.195028
0.184037
0.186785
0.181290
0.208767
0.238992
0.230749
0.200524
0.175794
0.153812
0.153812
0.115344
0.469804
0.137326
0.156560
0.145569
0.151064
0.170299
0.162055
0.164803
0.153812
0.134578
0.153812
0.206019
0.225254
0.225254
0.233497
0.222506
0.214263
0.222506
0.219758
0.228001
0.271965
0.277461
0.247236
0.214263
0.203272
0.195028
0.238992
0.181290
0.178542
0.184037
0.184037
0.181290
0.189533
0.186785
0.186785
0.189533
0.178542
0.184037
0.225254
0.230749
0.238992
0.233497
0.222506
0.208767
0.217010
0.214263
0.200524
0.249983
0.277461
0.280209
0.236245
0.200524
0.192281
0.192281
0.074127
0.827012
0.170299
0.164803
0.173046
0.164803
0.159308
0.162055
0.170299
0.173046
0.153812
0.164803
0.164803
0.181290
0.206019
0.195028
0.200524
0.195028
0.189533
0.173046
0.186785
0.178542
0.184037
0.219758
0.236245
0.225254
0.186785
0.159308
0.151064
0.107100
0.288452
0.145569
0.137326
0.137326
0.129082
0.148317
0.148317
0.140073
0.145569
0.148317
0.120839
0.126335
0.164803
0.200524
0.211515
0.211515
0.206019
0.211515
0.200524
0.195028
0.211515
0.206019
0.228001
0.274713
0.263722
0.230749
0.206019
0.192281
0.186785
0.090614
0.769309
0.167551
0.181290
0.175794
0.186785
0.189533
0.178542
0.195028
0.200524
0.192281
0.184037
0.217010
0.241740
0.238992
0.249983
0.236245
0.230749
0.233497
0.219758
0.228001
0.249983
0.269218
0.285704
0.263722
0.217010
0.211515
0.206019
0.222506
0.211515
0.189533
0.186785
0.186785
0.197776
0.189533
0.192281
0.195028
0.195028
0.189533
0.203272
0.225254
0.241740
0.241740
0.219758
0.222506
0.225254
0.211515
0.206019
0.217010
0.238992
0.274713
0.277461
0.230749
0.192281
0.192281
0.134578
0.434083
0.107100
0.162055
0.170299
0.184037
0.167551
0.170299
0.186785
0.178542
0.159308
0.148317
0.189533
0.222506
0.222506
0.219758
0.206019
0.214263
0.206019
0.211515
0.219758
0.230749
0.269218
0.277461
0.236245
0.214263
0.208767
0.192281
0.200524
0.302191
0.184037
0.186785
0.195028
0.181290
0.189533
0.192281
0.195028
0.184037
0.178542
0.195028
0.233497
0.241740
0.238992
0.233497
0.241740
0.214263
0.214263
0.228001
0.249983
0.285704
0.291200
0.219758
0.203272
0.206019
0.181290
0.167551
0.368137
0.167551
0.175794
0.181290
0.173046
0.170299
0.178542
0.164803
0.181290
0.170299
0.170299
0.197776
0.217010
0.211515
0.211515
0.208767
0.197776
0.189533
0.189533
0.186785
0.225254
0.258227
0.258227
0.203272
0.184037
0.162055
0.151064
0.280209
0.104353
0.140073
0.145569
0.137326
0.134578
0.156560
0.142821
0.142821
0.164803
0.134578
0.129082
0.175794
0.192281
0.200524
0.200524
0.173046
0.178542
0.178542
0.164803
0.173046
0.178542
0.197776
0.249983
0.236245
0.184037
0.164803
0.159308
0.109848
0.428588
0.065884
0.123587
0.137326
0.148317
0.131830
0.137326
0.153812
0.142821
0.137326
0.134578
0.145569
0.195028
0.222506
0.211515
0.217010
0.228001
0.206019
0.217010
0.219758
0.206019
0.217010
0.266470
0.282956
0.288452
0.233497
0.214263
0.206019
0.156560
0.486290
0.107100
0.197776
0.181290
0.192281
0.200524
0.197776
0.206019
0.208767
0.200524
0.211515
0.211515
0.241740
0.258227
0.258227
0.252731
0.252731
0.244488
0.228001
0.236245
0.241740
0.241740
0.285704
0.310434
0.296695
0.244488
0.222506
0.214263
0.120839
0.785795
0.109848
0.195028
0.189533
0.181290
0.186785
0.192281
0.189533
0.189533
0.184037
0.159308
0.225254
0.318677
0.266470
0.249983
0.222506
0.186785
0.200524
0.159308
0.472552
0.302191
0.167551
0.148317
0.170299
0.162055
0.156560
0.167551
0.170299
0.137326
0.120839
0.151064
0.178542
0.186785
0.195028
0.162055
0.173046
0.164803
0.156560
0.159308
0.159308
0.142821
0.129082
0.148317
0.120839
0.123587
0.126335
0.140073
0.173046
0.186785
0.082371
0.109848
0.090614
0.041154
0.552236
0.019172
0.060388
0.057641
0.041154
0.046650
0.057641
0.049397
0.057641
0.043902
0.013677
0.057641
0.090614
0.109848
0.090614
0.107100
0.068632
0.079623
0.071380
0.060388
0.087866
0.120839
0.142821
0.145569
0.087866
0.060388
0.019172
-0.000062
0.689624
0.038406
0.032911
0.024668
0.035659
0.082371
0.071380
0.041154
0.054893
0.041154
0.065884
0.126335
0.153812
0.131830
0.134578
0.137326
0.142821
0.145569
0.148317
0.181290
0.211515
0.241740
0.175794
0.200524
0.189533
0.079623
0.747327
0.173046
0.159308
0.184037
0.175794
0.162055
0.167551
0.186785
0.156560
0.167551
0.208767
0.228001
0.249983
0.241740
0.222506
0.230749
0.219758
0.217010
0.222506
0.230749
0.252731
0.266470
0.263722
0.208767
0.200524
0.203272
0.156560
0.873724
0.156560
0.175794
0.167551
0.164803
0.159308
0.170299
0.159308
0.159308
0.151064
0.148317
0.153812
0.211515
0.225254
0.222506
0.222506
0.208767
0.192281
0.192281
0.208767
0.195028
0.238992
0.258227
0.255479
0.296695
0.217010
0.200524
0.203272
0.098857
0.881967
0.184037
0.173046
0.164803
0.170299
0.170299
0.162055
0.178542
0.175794
0.131830
0.140073
0.186785
0.222506
0.241740
0.241740
0.222506
0.236245
0.219758
0.214263
0.225254
0.260974
0.280209
0.291200
0.241740
0.206019
0.211515
0.173046
0.112596
0.827012
0.192281
0.181290
0.189533
0.186785
0.184037
0.195028
0.197776
0.186785
0.192281
0.206019
0.241740
0.258227
0.260974
0.238992
0.255479
0.249983
0.225254
0.263722
0.307686
0.307686
0.277461
0.236245
0.211515
0.208767
0.238992
0.565975
0.184037
0.195028
0.178542
0.203272
0.189533
0.181290
0.203272
0.186785
0.162055
0.189533
0.230749
0.252731
0.266470
0.252731
0.241740
0.230749
0.219758
0.238992
0.282956
0.285704
0.291200
0.219758
0.208767
0.200524
0.134578
0.796786
0.175794
0.178542
0.170299
0.170299
0.173046
0.175794
0.167551
0.173046
0.162055
0.164803
0.228001
0.238992
0.241740
0.244488
0.236245
0.222506
0.228001
0.258227
0.277461
0.307686
0.203272
0.197776
0.203272
0.096109
0.733588
0.170299
0.178542
0.167551
0.170299
0.170299
0.164803
0.173046
0.167551
0.156560
0.206019
0.228001
0.217010
0.225254
0.217010
0.200524
0.211515
0.214263
0.233497
0.252731
0.244488
0.164803
0.167551
0.140073
0.123587
0.832507
0.137326
0.129082
0.123587
0.123587
0.104353
0.118091
0.115344
0.090614
0.101605
0.107100
0.145569
0.192281
0.178542
0.167551
0.178542
0.162055
0.148317
0.211515
0.225254
0.222506
0.186785
0.151064
0.145569
0.109848
0.478047
0.074127
0.131830
0.123587
0.126335
0.129082
0.120839
0.115344
0.126335
0.104353
0.098857
0.148317
0.186785
0.195028
0.195028
0.178542
0.178542
0.175794
0.184037
0.222506
0.236245
0.192281
0.164803
0.162055
0.145569
0.178542
0.425840
0.140073
0.140073
0.142821
0.145569
0.140073
0.142821
0.140073
0.142821
0.151064
0.151064
0.181290
0.211515
0.217010
0.200524
0.203272
0.195028
0.189533
0.222506
0.252731
0.255479
0.189533
0.175794
0.175794
0.156560
0.332416
0.112596
0.164803
0.151064
0.145569
0.156560
0.142821
0.142821
0.156560
0.140073
0.134578
0.181290
0.208767
0.225254
0.233497
0.208767
0.211515
0.208767
0.197776
0.233497
0.255479
0.260974
0.244488
0.200524
0.192281
0.192281
0.156560
0.925931
0.153812
0.175794
0.175794
0.164803
0.164803
0.156560
0.151064
0.151064
0.123587
0.129082
0.137326
0.203272
0.222506
0.230749
0.214263
0.214263
0.222506
0.208767
0.225254
0.266470
0.252731
0.258227
0.203272
0.192281
0.197776
0.140073
0.725345
0.137326
0.173046
0.159308
0.162055
0.164803
0.167551
0.162055
0.164803
0.159308
0.164803
0.203272
0.233497
0.236245
0.241740
0.230749
0.217010
0.219758
0.228001
0.252731
0.280209
0.274713
0.211515
0.200524
0.197776
0.109848
0.854490
0.178542
0.173046
0.173046
0.164803
0.173046
0.167551
0.159308
0.173046
0.173046
0.195028
0.219758
0.233497
0.233497
0.225254
0.219758
0.203272
0.189533
0.217010
0.249983
0.255479
0.184037
0.164803
0.170299
0.085118
0.813273
0.134578
0.156560
0.115344
0.120839
0.137326
0.115344
0.126335
0.115344
0.098857
0.140073
0.192281
0.192281
0.195028
0.189533
0.178542
0.167551
0.170299
0.186785
0.225254
0.236245
0.173046
0.159308
0.159308
0.115344
0.549489
0.090614
0.126335
0.118091
0.131830
0.112596
0.120839
0.120839
0.109848
0.098857
0.126335
0.170299
0.200524
0.203272
0.192281
0.186785
0.186785
0.162055
0.186785
0.222506
0.222506
0.200524
0.162055
0.148317
0.093362
0.670390
0.109848
0.112596
0.118091
0.098857
0.112596
0.109848
0.109848
0.112596
0.118091
0.126335
0.162055
0.184037
0.167551
0.170299
0.167551
0.145569
0.140073
0.175794
0.203272
